0,485
1,485
2,484
3,482
4,482
5,482
6,481
7,482
8,483
9,483
10,485
11,484
12,484
13,485
14,486
15,485
16,484
17,484
18,483
19,483
20,482
21,482
22,482
23,482
24,482
25,483
26,483
27,484
28,485
29,484
30,485
31,486
32,485
33,484
34,484
35,483
36,483
37,481
38,480
39,481
40,481
41,480
42,479
43,481
44,481
45,482
46,481
47,481
48,482
49,481
50,480
51,479
52,479
53,478
54,477
55,480
56,482
57,483
58,484
59,485
60,487
61,488
62,490
63,492
64,495
65,497
66,500
67,504
68,507
69,511
70,512
71,517
72,519
73,522
74,526
75,531
76,535
77,538
78,541
79,544
80,547
81,548
82,547
83,544
84,541
85,535
86,531
87,527
88,526
89,525
90,524
91,523
92,521
93,518
94,510
95,508
96,507
97,503
98,500
99,497
100,495
101,493
102,492
103,491
104,489
105,490
106,491
107,492
108,492
109,493
110,494
111,495
112,495
113,496
114,497
115,496
116,495
117,495
118,492
119,490
120,488
121,485
122,484
123,484
124,485
125,487
126,488
127,490
128,490
129,489
130,489
131,488
132,487
133,487
134,485
135,483
136,484
137,482
138,481
139,481
140,481
141,480
142,482
143,484
144,485
145,486
146,487
147,486
148,486
149,488
150,488
151,488
152,488
153,488
154,486
155,486
156,485
157,484
158,485
159,486
160,491
161,496
162,501
163,503
164,503
165,502
166,501
167,497
168,491
169,484
170,478
171,478
172,479
173,479
174,481
175,485
176,488
177,487
178,483
179,481
180,481
181,481
182,485
183,487
184,488
185,487
186,484
187,481
188,482
189,487
190,489
191,488
192,490
193,488
194,484
195,485
196,485
197,483
198,485
199,487
200,485
201,480
202,478
203,477
204,477
205,479
206,479
207,479
208,479
209,481
210,483
211,482
212,486
213,486
214,486
215,484
216,481
217,482
218,482
219,481
220,481
221,481
222,483
223,486
224,488
225,492
226,493
227,496
228,499
229,498
230,499
231,506
232,509
233,507
234,504
235,496
236,485
237,472
238,462
239,460
240,467
241,474
242,472
243,474
244,476
245,479
246,480
247,476
248,475
249,472
250,476
251,482
252,485
253,486
254,492
255,502
256,506
257,516
258,517
259,506
260,499
261,494
262,492
263,495
264,492
265,489
266,485
267,478
268,471
269,468
270,466
271,467
272,469
273,472
274,475
275,476
276,482
277,487
278,491
279,493
280,495
281,496
282,495
283,496
284,500
285,507
286,507
287,496
288,497
289,493
290,487
291,494
292,497
293,496
294,492
295,493
296,490
297,489
298,486
299,485
300,484
301,483
302,475
303,476
304,476
305,482
306,483
307,489
308,493
309,494
310,498
311,501
312,503
313,493
314,493
315,496
316,491
317,487
318,487
319,485
320,488
321,487
322,484
323,486
324,495
325,493
326,492
327,490
328,493
329,510
330,496
331,502
332,509
333,521
334,513
335,500
336,490
337,484
338,475
339,472
340,480
341,488
342,485
343,491
344,493
345,482
346,477
347,477
348,472
349,469
350,474
351,482
352,485
353,482
354,479
355,478
356,477
357,478
358,475
359,475
360,482
361,491
362,498
363,503
364,515
365,520
366,505
367,496
368,486
369,481
370,479
371,480
372,483
373,483
374,488
375,490
376,479
377,472
378,473
379,469
380,460
381,463
382,475
383,485
384,492
385,493
386,491
387,484
388,488
389,490
390,481
391,473
392,470
393,473
394,479
395,484
396,487
397,484
398,474
399,472
400,478
401,485
402,491
403,501
404,503
405,498
406,493
407,491
408,491
409,488
410,486
411,490
412,500
413,493
414,486
415,485
416,468
417,465
418,470
419,475
420,481
421,477
422,479
423,491
424,499
425,486
426,467
427,466
428,473
429,474
430,481
431,489
432,481
433,480
434,479
435,480
436,484
437,487
438,502
439,515
440,517
441,512
442,507
443,476
444,455
445,469
446,466
447,474
448,475
449,479
450,483
451,492
452,488
453,483
454,478
455,478
456,489
457,499
458,514
459,486
460,467
461,465
462,467
463,472
464,472
465,471
466,478
467,483
468,485
469,488
470,483
471,489
472,498
473,504
474,497
475,515
476,527
477,523
478,503
479,482
480,476
481,468
482,470
483,478
484,480
485,467
486,466
487,464
488,468
489,472
490,471
491,478
492,483
493,484
494,475
495,475
496,477
497,476
498,479
499,490
500,491
501,504
502,512
503,506
504,504
505,504
506,511
507,513
508,510
509,495
510,469
511,464
512,467
513,480
514,483
515,479
516,478
517,469
518,470
519,477
520,476
521,476
522,486
523,497
524,496
525,500
526,499
527,485
528,472
529,482
530,503
531,525
532,535
533,532
534,525
535,505
536,478
537,469
538,477
539,479
540,480
541,490
542,508
543,516
544,524
545,525
546,486
547,478
548,475
549,478
550,489
551,491
552,483
553,485
554,491
555,493
556,496
557,495
558,504
559,496
560,491
561,497
562,493
563,493
564,489
565,477
566,482
567,490
568,486
569,497
570,495
571,494
572,496
573,500
574,503
575,498
576,477
577,463
578,467
579,475
580,482
581,478
582,485
583,494
584,494
585,484
586,490
587,494
588,495
589,503
590,518
591,525
592,532
593,540
594,508
595,464
596,459
597,472
598,478
599,492
600,495
601,486
602,483
603,488
604,481
605,480
606,482
607,472
608,478
609,490
610,491
611,482
612,488
613,498
614,501
615,511
616,510
617,494
618,472
619,481
620,485
621,496
622,509
623,512
624,492
625,481
626,488
627,502
628,505
629,502
630,497
631,491
632,485
633,495
634,505
635,497
636,476
637,458
638,458
639,463
640,468
641,479
642,487
643,491
644,492
645,490
646,485
647,491
648,491
649,489
650,485
651,490
652,498
653,491
654,504
655,525
656,549
657,558
658,512
659,473
660,469
661,446
662,460
663,485
664,481
665,478
666,470
667,468
668,469
669,477
670,485
671,489
672,496
673,506
674,524
675,533
676,531
677,514
678,487
679,471
680,481
681,497
682,498
683,492
684,487
685,471
686,473
687,481
688,476
689,476
690,477
691,482
692,482
693,484
694,477
695,483
696,493
697,493
698,512
699,526
700,525
701,514
702,490
703,468
704,469
705,483
706,491
707,498
708,474
709,467
710,476
711,477
712,480
713,475
714,475
715,481
716,485
717,485
718,481
719,477
720,478
721,483
722,489
723,498
724,509
725,522
726,523
727,528
728,509
729,494
730,481
731,491
732,493
733,487
734,497
735,493
736,487
737,478
738,477
739,478
740,476
741,469
742,484
743,486
744,491
745,501
746,502
747,494
748,493
749,501
750,485
751,476
752,469
753,469
754,473
755,474
756,482
757,498
758,515
759,528
760,521
761,484
762,471
763,472
764,483
765,486
766,487
767,495
768,484
769,476
770,477
771,477
772,477
773,482
774,500
775,506
776,496
777,483
778,466
779,474
780,486
781,497
782,500
783,478
784,474
785,471
786,477
787,494
788,501
789,505
790,504
791,488
792,470
793,466
794,466
795,471
796,477
797,471
798,477
799,490
800,493
801,483
802,485
803,486
804,492
805,486
806,483
807,479
808,482
809,485
810,484
811,479
812,481
813,480
814,483
815,494
816,493
817,483
818,472
819,472
820,476
821,478
822,475
823,473
824,464
825,471
826,477
827,485
828,488
829,493
830,500
831,498
832,504
833,507
834,510
835,523
836,505
837,481
838,483
839,485
840,476
841,465
842,467
843,483
844,503
845,495
846,488
847,482
848,482
849,472
850,472
851,481
852,472
853,465
854,451
855,468
856,480
857,481
858,480
859,492
860,491
861,466
862,475
863,488
864,498
865,500
866,487
867,492
868,500
869,496
870,490
871,477
872,481
873,476
874,476
875,487
876,501
877,502
878,504
879,487
880,485
881,497
882,511
883,503
884,505
885,512
886,506
887,500
888,504
889,500
890,496
891,503
892,513
893,528
894,530
895,513
896,521
897,532
898,532
899,506
900,486
901,481
902,488
903,494
904,500
905,489
906,491
907,494
908,488
909,493
910,495
911,492
912,490
913,493
914,504
915,530
916,528
917,493
918,462
919,476
920,462
921,462
922,467
923,466
924,472
925,470
926,465
927,470
928,483
929,500
930,516
931,516
932,484
933,463
934,453
935,463
936,468
937,471
938,482
939,488
940,487
941,493
942,485
943,480
944,474
945,483
946,499
947,483
948,487
949,478
950,469
951,476
952,477
953,483
954,493
955,490
956,486
957,488
958,480
959,472
960,483
961,490
962,503
963,501
964,496
965,495
966,496
967,501
968,489
969,477
970,481
971,478
972,458
973,450
974,465
975,462
976,461
977,459
978,468
979,484
980,485
981,490
982,486
983,490
984,505
985,498
986,481
987,469
988,471
989,485
990,503
991,510
992,512
993,494
994,465
995,455
996,461
997,466
998,475
999,469
1000,462
1001,470
1002,483
1003,488
1004,502
1005,497
1006,466
1007,449
1008,452
1009,463
1010,473
1011,480
1012,478
1013,481
1014,493
1015,492
1016,489
1017,485
1018,478
1019,472
1020,467
1021,463
1022,464
1023,475
1024,489
1025,495
1026,501
1027,501
1028,496
1029,499
1030,494
1031,472
1032,475
1033,477
1034,478
1035,487
1036,494
1037,480
1038,470
1039,460
1040,463
1041,466
1042,462
1043,467
1044,467
1045,474
1046,483
1047,476
1048,477
1049,484
1050,488
1051,494
1052,489
1053,480
1054,482
1055,484
1056,485
1057,485
1058,491
1059,502
1060,516
1061,507
1062,495
1063,484
1064,484
1065,469
1066,467
1067,467
1068,469
1069,481
1070,482
1071,485
1072,470
1073,462
1074,477
1075,488
1076,495
1077,504
1078,499
1079,499
1080,481
1081,471
1082,493
1083,505
1084,490
1085,454
1086,448
1087,458
1088,460
1089,469
1090,469
1091,478
1092,492
1093,487
1094,489
1095,473
1096,483
1097,485
1098,493
1099,500
1100,499
1101,482
1102,472
1103,472
1104,478
1105,486
1106,493
1107,496
1108,485
1109,469
1110,463
1111,473
1112,478
1113,477
1114,483
1115,497
1116,498
1117,496
1118,491
1119,500
1120,481
1121,462
1122,457
1123,464
1124,477
1125,484
1126,487
1127,495
1128,497
1129,493
1130,483
1131,465
1132,476
1133,487
1134,491
1135,491
1136,496
1137,496
1138,476
1139,468
1140,475
1141,500
1142,502
1143,480
1144,464
1145,454
1146,464
1147,475
1148,481
1149,479
1150,477
1151,476
1152,475
1153,472
1154,473
1155,474
1156,482
1157,485
1158,474
1159,476
1160,479
1161,482
1162,490
1163,492
1164,496
1165,486
1166,483
1167,473
1168,462
1169,468
1170,470
1171,469
1172,467
1173,473
1174,485
1175,486
1176,484
1177,486
1178,490
1179,492
1180,488
1181,479
1182,464
1183,455
1184,464
1185,472
1186,477
1187,478
1188,479
1189,478
1190,473
1191,477
1192,479
1193,480
1194,483
1195,484
1196,482
1197,477
1198,480
1199,472
1200,467
1201,469
1202,470
1203,467
1204,465
1205,468
1206,470
1207,472
1208,473
1209,473
1210,476
1211,475
1212,477
1213,476
1214,477
1215,477
1216,476
1217,476
1218,476
1219,474
1220,473
1221,473
1222,473
1223,473
1224,473
1225,474
1226,475
1227,476
1228,476
1229,477
1230,477
1231,477
1232,478
1233,479
1234,478
1235,475
1236,474
1237,472
1238,472
1239,473
1240,472
1241,473
1242,472
1243,473
1244,474
1245,476
1246,477
1247,476
1248,476
1249,476
1250,476
1251,475
1252,473
1253,474
1254,474
1255,472
1256,473
1257,475
1258,475
1259,475
1260,478
1261,480
1262,482
1263,484
1264,483
1265,478
1266,475
1267,474
1268,471
1269,473
1270,474
1271,473
1272,470
1273,470
1274,468
1275,470
1276,472
1277,474
1278,475
1279,476
1280,476
1281,474
1282,474
1283,474
1284,474
1285,474
1286,473
1287,472
1288,471
1289,471
1290,472
1291,474
1292,476
1293,480
1294,480
1295,482
1296,482
1297,479
1298,476
1299,475
1300,474
1301,475
1302,477
1303,477
1304,472
1305,466
1306,466
1307,469
1308,472
1309,473
1310,475
1311,474
1312,473
1313,473
1314,474
1315,474
1316,473
1317,473
1318,472
1319,473
1320,472
1321,472
1322,472
1323,473
1324,473
1325,473
1326,474
1327,475
1328,475
1329,476
1330,476
1331,477
1332,476
1333,474
1334,474
1335,473
1336,472
1337,472
1338,471
1339,471
1340,472
1341,473
1342,473
1343,475
1344,476
1345,476
1346,477
1347,477
1348,476
1349,475
1350,475
1351,474
1352,474
1353,473
1354,472
1355,472
1356,471
1357,472
1358,471
1359,473
1360,474
1361,474
1362,475
1363,475
1364,476
1365,475
1366,474
1367,474
1368,473
1369,473
1370,471
1371,471
1372,471
1373,472
1374,472
1375,472
1376,475
1377,475
1378,475
1379,476
1380,476
1381,476
1382,476
1383,476
1384,476
1385,474
1386,474
1387,472
1388,471
1389,471
1390,472
1391,473
1392,474
1393,475
1394,476
1395,476
1396,476
1397,477
1398,476
1399,476
1400,475
1401,474
1402,473
1403,472
1404,472
1405,471
1406,471
1407,473
1408,473
1409,473
1410,475
1411,475
1412,476
1413,477
1414,475
1415,474
1416,473
1417,473
1418,471
1419,471
1420,471
1421,471
1422,470
1423,470
1424,471
1425,472
1426,473
1427,474
1428,475
1429,475
1430,473
1431,474
1432,474
1433,474
1434,473
1435,473
1436,472
1437,471
1438,471
1439,470
1440,471
1441,471
1442,472
1443,473
1444,474
1445,475
1446,475
1447,475
1448,475
1449,475
1450,474
1451,473
1452,473
1453,471
1454,471
1455,470
1456,470
1457,472
1458,471
1459,473
1460,474
1461,474
1462,475
1463,475
1464,475
1465,475
1466,474
1467,474
1468,472
1469,472
1470,471
1471,471
1472,470
1473,471
1474,471
1475,471
1476,473
1477,474
1478,475
1479,475
1480,476
1481,476
1482,474
1483,475
1484,474
1485,472
1486,472
1487,472
1488,472
1489,472
1490,472
1491,472
1492,473
1493,476
1494,475
1495,476
1496,476
1497,476
1498,476
1499,475
1500,475
1501,474
1502,473
1503,472
1504,472
1505,472
1506,472
1507,472
1508,473
1509,473
1510,474
1511,475
1512,477
1513,477
1514,477
1515,476
1516,476
1517,475
1518,474
1519,474
1520,473
1521,472
1522,472
1523,473
1524,474
1525,474
1526,475
1527,475
1528,477
1529,477
1530,477
1531,477
1532,476
1533,476
1534,475
1535,474
1536,474
1537,473
1538,473
1539,473
1540,473
1541,474
1542,474
1543,476
1544,476
1545,477
1546,478
1547,477
1548,478
1549,477
1550,476
1551,474
1552,474
1553,473
1554,473
1555,472
1556,472
1557,473
1558,479
1559,471
1560,473
1561,473
1562,473
1563,474
1564,474
1565,473
1566,473
1567,472
1568,472
1569,472
1570,469
1571,470
1572,469
1573,469
1574,470
1575,470
1576,471
1577,473
1578,473
1579,474
1580,474
1581,476
1582,475
1583,475
1584,475
1585,473
1586,473
1587,472
1588,472
1589,472
1590,473
1591,476
1592,477
1593,488
1594,479
1595,480
1596,480
1597,480
1598,480
1599,479
1600,479
1601,478
1602,477
1603,476
1604,476
1605,476
1606,476
1607,477
1608,476
1609,478
1610,479
1611,479
1612,480
1613,480
1614,480
1615,480
1616,479
1617,478
1618,478
1619,477
1620,476
1621,475
1622,475
1623,476
1624,475
1625,476
1626,476
1627,477
1628,476
1629,476
1630,476
1631,477
1632,476
1633,475
1634,475
1635,474
1636,475
1637,474
1638,475
1639,477
1640,478
1641,479
1642,480
1643,482
1644,483
1645,484
1646,486
1647,488
1648,489
1649,491
1650,493
1651,496
1652,497
1653,500
1654,502
1655,506
1656,509
1657,516
1658,519
1659,522
1660,527
1661,530
1662,532
1663,534
1664,533
1665,532
1666,530
1667,526
1668,520
1669,518
1670,512
1671,509
1672,508
1673,507
1674,505
1675,503
1676,502
1677,501
1678,501
1679,500
1680,497
1681,494
1682,492
1683,490
1684,488
1685,486
1686,485
1687,484
1688,483
1689,484
1690,483
1691,484
1692,484
1693,485
1694,484
1695,485
1696,485
1697,485
1698,484
1699,484
1700,483
1701,483
1702,481
1703,480
1704,480
1705,478
1706,479
1707,479
1708,479
1709,480
1710,481
1711,481
1712,482
1713,482
1714,482
1715,482
1716,481
1717,480
1718,478
1719,478
1720,477
1721,477
1722,477
1723,476
1724,476
1725,478
1726,478
1727,480
1728,480
1729,481
1730,480
1731,481
1732,480
1733,479
1734,479
1735,477
1736,478
1737,476
1738,477
1739,476
1740,477
1741,477
1742,478
1743,479
1744,479
1745,481
1746,481
1747,481
1748,481
1749,480
1750,480
1751,478
1752,478
1753,477
1754,476
1755,477
1756,477
1757,477
1758,476
1759,477
1760,479
1761,479
1762,480
1763,481
1764,481
1765,480
1766,480
1767,479
1768,478
1769,478
1770,476
1771,476
1772,477
1773,476
1774,477
1775,477
1776,478
1777,479
1778,480
1779,481
1780,481
1781,481
1782,480
1783,479
1784,479
1785,478
1786,479
1787,476
1788,476
1789,477
1790,477
1791,478
1792,478
1793,479
1794,479
1795,481
1796,481
1797,481
1798,481
1799,481
1800,480
1801,479
1802,478
1803,477
1804,477
1805,477
1806,477
1807,478
1808,478
1809,478
1810,480
1811,480
1812,481
1813,481
1814,482
1815,481
1816,480
1817,480
1818,478
1819,479
1820,478
1821,477
1822,478
1823,478
1824,479
1825,478
1826,479
1827,480
1828,481
1829,480
1830,481
1831,480
1832,480
1833,481
1834,480
1835,479
1836,479
1837,477
1838,478
1839,477
1840,479
1841,479
1842,479
1843,481
1844,481
1845,482
1846,482
1847,482
1848,482
1849,481
1850,481
1851,480
1852,479
1853,478
1854,478
1855,477
1856,477
1857,479
1858,478
1859,479
1860,481
1861,481
1862,483
1863,483
1864,483
1865,483
1866,481
1867,480
1868,480
1869,479
1870,478
1871,478
1872,479
1873,479
1874,480
1875,479
1876,482
1877,482
1878,482
1879,483
1880,483
1881,483
1882,482
1883,483
1884,482
1885,481
1886,480
1887,479
1888,479
1889,479
1890,479
1891,480
1892,481
1893,483
1894,482
1895,483
1896,483
1897,484
1898,483
1899,483
1900,483
1901,482
1902,481
1903,480
1904,480
1905,479
1906,480
1907,481
1908,481
1909,482
1910,483
1911,483
1912,484
1913,484
1914,485
1915,485
1916,484
1917,482
1918,482
1919,483
1920,480
1921,481
1922,481
1923,481
1924,481
1925,481
1926,483
1927,483
1928,484
1929,484
1930,484
1931,484
1932,483
1933,483
1934,482
1935,481
1936,481
1937,479
1938,479
1939,479
1940,480
1941,480
1942,481
1943,482
1944,480
1945,481
1946,480
1947,481
1948,480
1949,480
1950,481
1951,476
1952,477
1953,476
1954,476
1955,475
1956,475
1957,476
1958,477
1959,478
1960,479
1961,479
1962,480
1963,480
1964,480
1965,478
1966,479
1967,478
1968,477
1969,476
1970,475
1971,476
1972,475
1973,476
1974,476
1975,476
1976,478
1977,478
1978,480
1979,481
1980,481
1981,480
1982,480
1983,479
1984,478
1985,477
1986,477
1987,475
1988,476
1989,476
1990,476
1991,477
1992,477
1993,480
1994,479
1995,480
1996,480
1997,480
1998,480
1999,480
2000,480
2001,478
2002,478
2003,477
2004,477
2005,476
2006,476
2007,477
2008,478
2009,478
2010,479
2011,480
2012,480
2013,481
2014,481
2015,481
2016,480
2017,479
2018,477
2019,478
2020,477
2021,477
2022,475
2023,476
2024,477
2025,477
2026,479
2027,480
2028,481
2029,481
2030,482
2031,480
2032,480
2033,480
2034,480
2035,478
2036,479
2037,477
2038,477
2039,477
2040,478
2041,478
2042,478
2043,480
2044,480
2045,482
2046,481
2047,481
2048,481
2049,481
2050,480
2051,478
2052,478
2053,477
2054,477
2055,477
2056,477
2057,478
2058,478
2059,479
2060,480
2061,480
2062,481
2063,481
2064,482
2065,482
2066,480
2067,479
2068,478
2069,479
2070,477
2071,477
2072,477
2073,477
2074,479
2075,478
2076,480
2077,481
2078,482
2079,482
2080,482
2081,482
2082,482
2083,481
2084,481
2085,479
2086,479
2087,478
2088,477
2089,477
2090,478
2091,478
2092,480
2093,480
2094,481
2095,482
2096,482
2097,483
2098,482
2099,482
2100,481
2101,479
2102,479
2103,478
2104,477
2105,478
2106,477
2107,478
2108,478
2109,480
2110,481
2111,481
2112,484
2113,483
2114,484
2115,484
2116,483
2117,483
2118,481
2119,481
2120,479
2121,479
2122,490
2123,479
2124,480
2125,480
2126,482
2127,483
2128,483
2129,483
2130,484
2131,483
2132,482
2133,483
2134,482
2135,481
2136,481
2137,479
2138,480
2139,480
2140,480
2141,480
2142,481
2143,483
2144,483
2145,484
2146,483
2147,483
2148,483
2149,482
2150,482
2151,480
2152,479
2153,479
2154,479
2155,479
2156,478
2157,479
2158,480
2159,481
2160,483
2161,482
2162,483
2163,483
2164,483
2165,482
2166,482
2167,482
2168,481
2169,480
2170,479
2171,478
2172,479
2173,479
2174,480
2175,480
2176,481
2177,483
2178,485
2179,483
2180,484
2181,483
2182,483
2183,482
2184,482
2185,480
2186,480
2187,479
2188,479
2189,479
2190,479
2191,480
2192,480
2193,482
2194,481
2195,484
2196,483
2197,483
2198,483
2199,483
2200,482
2201,482
2202,481
2203,479
2204,479
2205,479
2206,479
2207,480
2208,480
2209,481
2210,482
2211,483
2212,483
2213,483
2214,483
2215,484
2216,483
2217,482
2218,481
2219,482
2220,479
2221,479
2222,480
2223,480
2224,480
2225,480
2226,482
2227,483
2228,484
2229,483
2230,483
2231,484
2232,483
2233,483
2234,481
2235,481
2236,481
2237,479
2238,479
2239,479
2240,480
2241,481
2242,481
2243,482
2244,483
2245,484
2246,483
2247,483
2248,484
2249,484
2250,483
2251,482
2252,481
2253,480
2254,479
2255,480
2256,479
2257,480
2258,480
2259,481
2260,482
2261,482
2262,483
2263,483
2264,483
2265,483
2266,484
2267,482
2268,481
2269,482
2270,479
2271,480
2272,479
2273,480
2274,480
2275,479
2276,482
2277,483
2278,484
2279,484
2280,484
2281,484
2282,484
2283,483
2284,483
2285,481
2286,482
2287,480
2288,480
2289,480
2290,480
2291,481
2292,481
2293,483
2294,489
2295,484
2296,483
2297,484
2298,484
2299,484
2300,483
2301,483
2302,482
2303,481
2304,480
2305,480
2306,480
2307,481
2308,480
2309,482
2310,483
2311,483
2312,483
2313,484
2314,484
2315,484
2316,483
2317,482
2318,482
2319,482
2320,480
2321,480
2322,480
2323,480
2324,481
2325,480
2326,482
2327,483
2328,484
2329,484
2330,484
2331,483
2332,483
2333,483
2334,482
2335,482
2336,482
2337,480
2338,479
2339,479
2340,481
2341,481
2342,481
2343,483
2344,482
2345,483
2346,484
2347,483
2348,483
2349,484
2350,484
2351,482
2352,482
2353,481
2354,480
2355,480
2356,480
2357,479
2358,480
2359,482
2360,483
2361,483
2362,484
2363,484
2364,484
2365,484
2366,483
2367,483
2368,481
2369,481
2370,480
2371,480
2372,480
2373,481
2374,480
2375,481
2376,482
2377,483
2378,483
2379,484
2380,485
2381,484
2382,485
2383,483
2384,483
2385,481
2386,481
2387,480
2388,479
2389,480
2390,480
2391,481
2392,482
2393,483
2394,482
2395,484
2396,483
2397,484
2398,483
2399,484
2400,483
2401,482
2402,480
2403,478
2404,477
2405,477
2406,477
2407,476
2408,475
2409,475
2410,477
2411,477
2412,479
2413,480
2414,479
2415,480
2416,480
2417,482
2418,481
2419,481
2420,481
2421,481
2422,482
2423,483
2424,486
2425,488
2426,491
2427,496
2428,501
2429,505
2430,509
2431,513
2432,518
2433,522
2434,525
2435,529
2436,533
2437,534
2438,537
2439,541
2440,543
2441,545
2442,546
2443,548
2444,547
2445,546
2446,542
2447,537
2448,533
2449,529
2450,524
2451,521
2452,517
2453,512
2454,508
2455,507
2456,505
2457,503
2458,501
2459,500
2460,499
2461,497
2462,496
2463,496
2464,496
2465,495
2466,494
2467,493
2468,491
2469,490
2470,489
2471,488
2472,487
2473,487
2474,488
2475,486
2476,487
2477,488
2478,488
2479,489
2480,489
2481,489
2482,488
2483,487
2484,485
2485,484
2486,484
2487,481
2488,482
2489,482
2490,483
2491,484
2492,484
2493,486
2494,485
2495,486
2496,486
2497,486
2498,486
2499,484
2500,484
2501,483
2502,483
2503,482
2504,482
2505,481
2506,481
2507,481
2508,480
2509,480
2510,477
2511,481
2512,483
2513,483
2514,481
2515,482
2516,482
2517,482
2518,482
2519,481
2520,480
2521,480
2522,480
2523,481
2524,480
2525,480
2526,481
2527,482
2528,483
2529,485
2530,484
2531,484
2532,484
2533,484
2534,483
2535,483
2536,482
2537,482
2538,482
2539,482
2540,481
2541,481
2542,479
2543,482
2544,483
2545,484
2546,485
2547,486
2548,487
2549,485
2550,482
2551,480
2552,482
2553,483
2554,484
2555,484
2556,483
2557,480
2558,480
2559,481
2560,481
2561,479
2562,481
2563,483
2564,485
2565,487
2566,485
2567,481
2568,478
2569,477
2570,477
2571,479
2572,479
2573,481
2574,482
2575,481
2576,480
2577,476
2578,479
2579,481
2580,482
2581,484
2582,485
2583,486
2584,486
2585,486
2586,482
2587,475
2588,487
2589,474
2590,473
2591,476
2592,477
2593,479
2594,479
2595,478
2596,472
2597,473
2598,475
2599,475
2600,474
2601,475
2602,477
2603,479
2604,483
2605,486
2606,487
2607,485
2608,482
2609,477
2610,478
2611,479
2612,482
2613,482
2614,484
2615,481
2616,476
2617,472
2618,475
2619,477
2620,474
2621,473
2622,472
2623,474
2624,481
2625,478
2626,482
2627,483
2628,489
2629,491
2630,490
2631,490
2632,491
2633,492
2634,489
2635,485
2636,480
2637,478
2638,475
2639,476
2640,483
2641,484
2642,485
2643,484
2644,482
2645,482
2646,482
2647,484
2648,485
2649,485
2650,484
2651,492
2652,497
2653,486
2654,484
2655,483
2656,484
2657,488
2658,496
2659,505
2660,518
2661,520
2662,524
2663,511
2664,494
2665,489
2666,494
2667,474
2668,454
2669,461
2670,470
2671,473
2672,476
2673,474
2674,472
2675,473
2676,482
2677,490
2678,495
2679,497
2680,496
2681,489
2682,485
2683,485
2684,487
2685,480
2686,476
2687,477
2688,480
2689,482
2690,490
2691,497
2692,497
2693,499
2694,494
2695,483
2696,475
2697,474
2698,472
2699,474
2700,481
2701,483
2702,486
2703,485
2704,488
2705,489
2706,492
2707,489
2708,489
2709,489
2710,494
2711,495
2712,496
2713,494
2714,493
2715,489
2716,488
2717,487
2718,483
2719,481
2720,479
2721,480
2722,482
2723,484
2724,483
2725,485
2726,493
2727,499
2728,498
2729,494
2730,487
2731,480
2732,475
2733,485
2734,496
2735,504
2736,512
2737,499
2738,481
2739,472
2740,471
2741,470
2742,476
2743,487
2744,495
2745,497
2746,496
2747,500
2748,501
2749,501
2750,505
2751,508
2752,487
2753,480
2754,490
2755,496
2756,493
2757,503
2758,501
2759,516
2760,518
2761,499
2762,500
2763,491
2764,482
2765,484
2766,486
2767,493
2768,486
2769,481
2770,479
2771,481
2772,490
2773,494
2774,486
2775,486
2776,485
2777,481
2778,474
2779,478
2780,479
2781,476
2782,471
2783,474
2784,475
2785,480
2786,491
2787,505
2788,517
2789,534
2790,545
2791,524
2792,496
2793,467
2794,446
2795,464
2796,481
2797,487
2798,467
2799,469
2800,474
2801,482
2802,486
2803,482
2804,482
2805,479
2806,478
2807,481
2808,486
2809,489
2810,487
2811,479
2812,478
2813,486
2814,490
2815,490
2816,505
2817,515
2818,506
2819,488
2820,482
2821,487
2822,482
2823,479
2824,484
2825,479
2826,476
2827,480
2828,498
2829,490
2830,490
2831,502
2832,518
2833,525
2834,509
2835,509
2836,515
2837,483
2838,489
2839,484
2840,476
2841,479
2842,475
2843,478
2844,483
2845,497
2846,512
2847,518
2848,508
2849,502
2850,494
2851,484
2852,488
2853,486
2854,482
2855,486
2856,496
2857,499
2858,495
2859,494
2860,485
2861,482
2862,478
2863,490
2864,504
2865,505
2866,496
2867,493
2868,470
2869,475
2870,481
2871,479
2872,479
2873,482
2874,483
2875,483
2876,485
2877,475
2878,481
2879,499
2880,496
2881,494
2882,500
2883,497
2884,507
2885,510
2886,518
2887,526
2888,512
2889,502
2890,491
2891,483
2892,472
2893,469
2894,467
2895,466
2896,478
2897,484
2898,482
2899,485
2900,488
2901,477
2902,460
2903,462
2904,470
2905,485
2906,495
2907,502
2908,497
2909,483
2910,486
2911,478
2912,482
2913,490
2914,500
2915,513
2916,538
2917,547
2918,549
2919,512
2920,490
2921,490
2922,479
2923,464
2924,458
2925,448
2926,464
2927,474
2928,484
2929,490
2930,492
2931,492
2932,494
2933,492
2934,489
2935,498
2936,502
2937,506
2938,490
2939,474
2940,483
2941,496
2942,493
2943,489
2944,495
2945,506
2946,508
2947,504
2948,504
2949,505
2950,498
2951,500
2952,472
2953,473
2954,493
2955,502
2956,506
2957,488
2958,488
2959,485
2960,482
2961,488
2962,492
2963,496
2964,496
2965,522
2966,525
2967,501
2968,482
2969,479
2970,472
2971,472
2972,489
2973,494
2974,494
2975,488
2976,476
2977,480
2978,491
2979,491
2980,509
2981,529
2982,523
2983,491
2984,472
2985,473
2986,484
2987,482
2988,469
2989,476
2990,493
2991,500
2992,502
2993,494
2994,485
2995,484
2996,497
2997,507
2998,509
2999,510
3000,501
3001,477
3002,469
3003,466
3004,460
3005,461
3006,464
3007,467
3008,477
3009,490
3010,491
3011,505
3012,520
3013,512
3014,533
3015,538
3016,498
3017,468
3018,462
3019,468
3020,480
3021,485
3022,486
3023,490
3024,488
3025,485
3026,485
3027,488
3028,497
3029,509
3030,510
3031,502
3032,482
3033,486
3034,485
3035,490
3036,494
3037,492
3038,480
3039,480
3040,493
3041,488
3042,481
3043,484
3044,491
3045,515
3046,530
3047,493
3048,456
3049,467
3050,480
3051,495
3052,499
3053,480
3054,471
3055,474
3056,478
3057,487
3058,493
3059,489
3060,482
3061,471
3062,485
3063,502
3064,507
3065,517
3066,510
3067,502
3068,495
3069,483
3070,484
3071,474
3072,472
3073,492
3074,499
3075,489
3076,481
3077,482
3078,486
3079,495
3080,502
3081,489
3082,475
3083,485
3084,498
3085,502
3086,491
3087,477
3088,461
3089,465
3090,474
3091,482
3092,487
3093,484
3094,494
3095,501
3096,494
3097,495
3098,481
3099,475
3100,476
3101,487
3102,509
3103,509
3104,507
3105,485
3106,471
3107,468
3108,467
3109,476
3110,473
3111,475
3112,498
3113,515
3114,513
3115,495
3116,491
3117,495
3118,498
3119,480
3120,451
3121,452
3122,469
3123,472
3124,483
3125,493
3126,499
3127,501
3128,486
3129,469
3130,487
3131,495
3132,496
3133,491
3134,478
3135,475
3136,469
3137,471
3138,476
3139,486
3140,493
3141,493
3142,481
3143,486
3144,497
3145,506
3146,508
3147,504
3148,506
3149,504
3150,508
3151,502
3152,507
3153,509
3154,518
3155,536
3156,534
3157,533
3158,542
3159,534
3160,531
3161,547
3162,547
3163,533
3164,529
3165,516
3166,522
3167,517
3168,521
3169,517
3170,522
3171,516
3172,526
3173,535
3174,538
3175,530
3176,491
3177,476
3178,468
3179,474
3180,478
3181,480
3182,485
3183,491
3184,487
3185,476
3186,477
3187,492
3188,491
3189,489
3190,483
3191,493
3192,487
3193,478
3194,492
3195,499
3196,506
3197,498
3198,482
3199,477
3200,483
3201,498
3202,517
3203,513
3204,491
3205,481
3206,472
3207,477
3208,476
3209,477
3210,485
3211,497
3212,490
3213,479
3214,474
3215,469
3216,482
3217,496
3218,496
3219,493
3220,477
3221,468
3222,472
3223,474
3224,475
3225,487
3226,490
3227,492
3228,495
3229,481
3230,484
3231,496
3232,509
3233,500
3234,494
3235,479
3236,475
3237,466
3238,460
3239,465
3240,472
3241,474
3242,480
3243,482
3244,475
3245,472
3246,475
3247,476
3248,478
3249,480
3250,479
3251,494
3252,502
3253,498
3254,498
3255,485
3256,486
3257,481
3258,480
3259,475
3260,483
3261,496
3262,501
3263,499
3264,487
3265,476
3266,468
3267,459
3268,456
3269,468
3270,480
3271,491
3272,484
3273,484
3274,476
3275,473
3276,476
3277,481
3278,490
3279,500
3280,505
3281,507
3282,505
3283,499
3284,491
3285,476
3286,481
3287,487
3288,479
3289,475
3290,469
3291,457
3292,460
3293,474
3294,484
3295,486
3296,497
3297,501
3298,499
3299,501
3300,504
3301,501
3302,499
3303,486
3304,466
3305,456
3306,453
3307,456
3308,471
3309,483
3310,483
3311,483
3312,464
3313,450
3314,474
3315,478
3316,483
3317,485
3318,484
3319,498
3320,504
3321,522
3322,499
3323,474
3324,470
3325,474
3326,482
3327,484
3328,492
3329,487
3330,476
3331,487
3332,485
3333,484
3334,487
3335,484
3336,460
3337,457
3338,469
3339,473
3340,470
3341,479
3342,498
3343,494
3344,487
3345,476
3346,482
3347,495
3348,490
3349,491
3350,474
3351,468
3352,475
3353,475
3354,466
3355,470
3356,474
3357,475
3358,471
3359,476
3360,480
3361,483
3362,489
3363,500
3364,503
3365,493
3366,490
3367,476
3368,475
3369,490
3370,478
3371,470
3372,480
3373,492
3374,505
3375,507
3376,501
3377,483
3378,471
3379,472
3380,471
3381,472
3382,464
3383,472
3384,479
3385,483
3386,489
3387,489
3388,492
3389,499
3390,497
3391,493
3392,485
3393,488
3394,481
3395,481
3396,468
3397,462
3398,471
3399,479
3400,482
3401,482
3402,477
3403,478
3404,483
3405,472
3406,478
3407,502
3408,501
3409,497
3410,485
3411,473
3412,470
3413,472
3414,479
3415,483
3416,486
3417,490
3418,500
3419,488
3420,482
3421,498
3422,492
3423,489
3424,484
3425,468
3426,473
3427,476
3428,467
3429,458
3430,466
3431,480
3432,489
3433,491
3434,489
3435,477
3436,468
3437,474
3438,483
3439,483
3440,488
3441,480
3442,487
3443,488
3444,476
3445,458
3446,462
3447,469
3448,475
3449,480
3450,486
3451,494
3452,499
3453,483
3454,470
3455,468
3456,477
3457,489
3458,482
3459,477
3460,474
3461,481
3462,485
3463,481
3464,490
3465,493
3466,477
3467,464
3468,461
3469,467
3470,486
3471,500
3472,500
3473,491
3474,468
3475,469
3476,467
3477,463
3478,469
3479,475
3480,478
3481,478
3482,478
3483,478
3484,475
3485,476
3486,479
3487,480
3488,478
3489,486
3490,491
3491,483
3492,475
3493,468
3494,479
3495,483
3496,484
3497,488
3498,483
3499,480
3500,473
3501,476
3502,471
3503,468
3504,466
3505,471
3506,477
3507,476
3508,471
3509,473
3510,487
3511,496
3512,505
3513,508
3514,482
3515,477
3516,476
3517,470
3518,463
3519,474
3520,483
3521,488
3522,484
3523,465
3524,470
3525,475
3526,479
3527,475
3528,473
3529,490
3530,488
3531,478
3532,480
3533,472
3534,476
3535,477
3536,476
3537,474
3538,467
3539,470
3540,476
3541,475
3542,480
3543,480
3544,474
3545,480
3546,491
3547,495
3548,487
3549,465
3550,457
3551,466
3552,471
3553,471
3554,472
3555,473
3556,479
3557,484
3558,479
3559,479
3560,479
3561,482
3562,485
3563,486
3564,482
3565,480
3566,473
3567,471
3568,483
3569,481
3570,481
3571,463
3572,464
3573,478
3574,472
3575,467
3576,472
3577,479
3578,480
3579,475
3580,470
3581,478
3582,480
3583,478
3584,479
3585,477
3586,479
3587,482
3588,484
3589,480
3590,480
3591,473
3592,476
3593,482
3594,467
3595,467
3596,473
3597,480
3598,489
3599,491
3600,487
3601,481
3602,474
3603,477
3604,477
3605,475
3606,484
3607,471
3608,469
3609,464
3610,473
3611,475
3612,481
3613,483
3614,484
3615,497
3616,482
3617,473
3618,480
3619,477
3620,470
3621,463
3622,451
3623,459
3624,470
3625,478
3626,483
3627,484
3628,480
3629,464
3630,460
3631,473
3632,477
3633,474
3634,466
3635,470
3636,477
3637,480
3638,484
3639,481
3640,468
3641,459
3642,471
3643,484
3644,487
3645,485
3646,479
3647,475
3648,479
3649,476
3650,469
3651,462
3652,461
3653,466
3654,466
3655,468
3656,470
3657,474
3658,469
3659,478
3660,490
3661,498
3662,506
3663,506
3664,495
3665,466
3666,450
3667,458
3668,463
3669,465
3670,466
3671,462
3672,462
3673,465
3674,467
3675,469
3676,471
3677,472
3678,474
3679,475
3680,476
3681,475
3682,476
3683,477
3684,477
3685,477
3686,475
3687,473
3688,474
3689,472
3690,470
3691,473
3692,474
3693,476
3694,475
3695,477
3696,475
3697,474
3698,473
3699,475
3700,476
3701,474
3702,473
3703,472
3704,473
3705,475
3706,478
3707,477
3708,478
3709,477
3710,475
3711,476
3712,480
3713,483
3714,485
3715,499
3716,494
3717,496
3718,493
3719,494
3720,484
3721,474
3722,468
3723,467
3724,469
3725,472
3726,476
3727,479
3728,479
3729,479
3730,479
3731,479
3732,480
3733,480
3734,479
3735,479
3736,478
3737,475
3738,476
3739,477
3740,479
3741,482
3742,482
3743,484
3744,482
3745,483
3746,480
3747,479
3748,479
3749,479
3750,478
3751,477
3752,477
3753,478
3754,477
3755,477
3756,477
3757,478
3758,479
3759,481
3760,483
3761,482
3762,480
3763,480
3764,478
3765,477
3766,477
3767,478
3768,478
3769,477
3770,478
3771,477
3772,477
3773,478
3774,478
3775,478
3776,479
3777,480
3778,481
3779,482
3780,481
3781,480
3782,480
3783,479
3784,478
3785,478
3786,478
3787,486
3788,487
3789,477
3790,477
3791,476
3792,476
3793,478
3794,478
3795,480
3796,481
3797,480
3798,481
3799,480
3800,479
3801,479
3802,479
3803,477
3804,477
3805,476
3806,477
3807,476
3808,477
3809,477
3810,479
3811,479
3812,480
3813,480
3814,480
3815,480
3816,479
3817,479
3818,477
3819,477
3820,476
3821,476
3822,474
3823,474
3824,474
3825,473
3826,474
3827,473
3828,473
3829,474
3830,476
3831,476
3832,476
3833,476
3834,476
3835,476
3836,478
3837,476
3838,477
3839,477
3840,479
3841,479
3842,481
3843,484
3844,486
3845,489
3846,492
3847,495
3848,497
3849,500
3850,503
3851,504
3852,507
3853,509
3854,512
3855,516
3856,519
3857,522
3858,524
3859,527
3860,529
3861,530
3862,530
3863,529
3864,524
3865,521
3866,518
3867,515
3868,509
3869,508
3870,504
3871,502
3872,499
3873,498
3874,496
3875,495
3876,495
3877,493
3878,490
3879,489
3880,487
3881,487
3882,486
3883,484
3884,484
3885,482
3886,481
3887,480
3888,480
3889,480
3890,480
3891,479
3892,481
3893,481
3894,481
3895,482
3896,482
3897,481
3898,481
3899,480
3900,480
3901,478
3902,478
3903,476
3904,474
3905,475
3906,475
3907,475
3908,477
3909,477
3910,478
3911,478
3912,479
3913,478
3914,478
3915,478
3916,478
3917,478
3918,476
3919,475
3920,474
3921,474
3922,474
3923,474
3924,474
3925,474
3926,476
3927,477
3928,478
3929,478
3930,478
3931,478
3932,478
3933,478
3934,477
3935,476
3936,475
3937,474
3938,474
3939,474
3940,475
3941,475
3942,475
3943,476
3944,478
3945,478
3946,479
3947,478
3948,478
3949,478
3950,477
3951,476
3952,475
3953,474
3954,474
3955,474
3956,474
3957,475
3958,475
3959,476
3960,477
3961,477
3962,478
3963,478
3964,478
3965,478
3966,477
3967,476
3968,475
3969,477
3970,474
3971,474
3972,474
3973,474
3974,475
3975,474
3976,477
3977,477
3978,478
3979,479
3980,479
3981,478
3982,478
3983,477
3984,477
3985,476
3986,475
3987,474
3988,474
3989,474
3990,475
3991,475
3992,475
3993,478
3994,478
3995,478
3996,479
3997,478
3998,478
3999,478
4000,477
4001,476
4002,476
4003,474
4004,474
4005,474
4006,475
4007,475
4008,475
4009,476
4010,478
4011,478
4012,480
4013,478
4014,479
4015,479
4016,478
4017,477
4018,476
4019,476
4020,474
4021,474
4022,474
4023,475
4024,476
4025,476
4026,478
4027,478
4028,479
4029,479
4030,479
4031,479
4032,478
4033,478
4034,477
4035,477
4036,476
4037,474
4038,475
4039,474
4040,475
4041,476
4042,476
4043,478
4044,478
4045,479
4046,479
4047,480
4048,479
4049,479
4050,479
4051,477
4052,476
4053,475
4054,476
4055,476
4056,476
4057,476
4058,476
4059,478
4060,478
4061,479
4062,481
4063,480
4064,480
4065,480
4066,478
4067,478
4068,476
4069,476
4070,474
4071,475
4072,475
4073,475
4074,475
4075,477
4076,478
4077,478
4078,479
4079,479
4080,480
4081,479
4082,479
4083,479
4084,478
4085,477
4086,477
4087,475
4088,475
4089,475
4090,476
4091,471
4092,477
4093,480
4094,480
4095,480
4096,481
4097,480
4098,480
4099,480
4100,481
4101,479
4102,478
4103,477
4104,477
4105,477
4106,477
4107,478
4108,478
4109,479
4110,480
4111,480
4112,481
4113,482
4114,481
4115,481
4116,480
4117,479
4118,478
4119,478
4120,477
4121,476
4122,476
4123,476
4124,477
4125,477
4126,479
4127,485
4128,480
4129,480
4130,480
4131,479
4132,479
4133,478
4134,477
4135,476
4136,476
4137,475
4138,474
4139,475
4140,475
4141,476
4142,476
4143,477
4144,478
4145,479
4146,479
4147,479
4148,478
4149,478
4150,477
4151,476
4152,475
4153,474
4154,475
4155,474
4156,475
4157,475
4158,475
4159,476
4160,478
4161,477
4162,478
4163,478
4164,478
4165,478
4166,477
4167,477
4168,476
4169,476
4170,474
4171,476
4172,474
4173,475
4174,476
4175,477
4176,478
4177,478
4178,479
4179,480
4180,480
4181,479
4182,479
4183,478
4184,478
4185,477
4186,477
4187,476
4188,475
4189,475
4190,475
4191,477
4192,478
4193,480
4194,479
4195,480
4196,480
4197,480
4198,480
4199,480
4200,479
4201,478
4202,477
4203,476
4204,475
4205,476
4206,476
4207,477
4208,478
4209,478
4210,479
4211,480
4212,481
4213,481
4214,480
4215,481
4216,480
4217,479
4218,478
4219,478
4220,476
4221,477
4222,477
4223,474
4224,472
4225,474
4226,476
4227,476
4228,477
4229,478
4230,478
4231,477
4232,477
4233,478
4234,476
4235,477
4236,476
4237,475
4238,474
4239,474
4240,475
4241,475
4242,476
4243,481
4244,481
4245,493
4246,483
4247,482
4248,482
4249,482
4250,481
4251,480
4252,480
4253,479
4254,478
4255,478
4256,479
4257,479
4258,479
4259,480
4260,481
4261,482
4262,483
4263,483
4264,484
4265,483
4266,481
4267,482
4268,480
4269,480
4270,479
4271,478
4272,479
4273,479
4274,480
4275,479
4276,481
4277,483
4278,482
4279,482
4280,483
4281,482
4282,482
4283,482
4284,481
4285,480
4286,480
4287,478
4288,478
4289,478
4290,480
4291,479
4292,480
4293,482
4294,482
4295,482
4296,483
4297,482
4298,483
4299,483
4300,482
4301,480
4302,479
4303,479
4304,479
4305,479
4306,480
4307,480
4308,480
4309,481
4310,482
4311,482
4312,484
4313,484
4314,483
4315,483
4316,482
4317,482
4318,480
4319,481
4320,479
4321,478
4322,479
4323,479
4324,480
4325,479
4326,482
4327,482
4328,483
4329,484
4330,482
4331,483
4332,483
4333,482
4334,481
4335,480
4336,480
4337,479
4338,478
4339,478
4340,479
4341,480
4342,480
4343,481
4344,481
4345,483
4346,483
4347,482
4348,483
4349,482
4350,482
4351,481
4352,481
4353,480
4354,478
4355,479
4356,479
4357,480
4358,480
4359,481
4360,481
4361,481
4362,483
4363,483
4364,483
4365,483
4366,482
4367,482
4368,480
4369,481
4370,478
4371,477
4372,478
4373,479
4374,480
4375,480
4376,481
4377,482
4378,483
4379,483
4380,483
4381,483
4382,483
4383,483
4384,482
4385,481
4386,481
4387,479
4388,478
4389,480
4390,480
4391,481
4392,481
4393,483
4394,483
4395,483
4396,483
4397,483
4398,483
4399,484
4400,483
4401,481
4402,482
4403,480
4404,480
4405,480
4406,480
4407,480
4408,481
4409,482
4410,483
4411,482
4412,483
4413,483
4414,483
4415,483
4416,482
4417,483
4418,481
4419,481
4420,479
4421,479
4422,478
4423,479
4424,480
4425,480
4426,482
4427,483
4428,484
4429,484
4430,484
4431,483
4432,484
4433,483
4434,482
4435,481
4436,480
4437,480
4438,480
4439,480
4440,480
4441,481
4442,481
4443,483
4444,484
4445,484
4446,483
4447,484
4448,484
4449,484
4450,483
4451,482
4452,481
4453,480
4454,481
4455,481
4456,481
4457,481
4458,481
4459,483
4460,483
4461,483
4462,485
4463,484
4464,484
4465,483
4466,483
4467,483
4468,481
4469,481
4470,480
4471,479
4472,480
4473,480
4474,481
4475,481
4476,483
4477,483
4478,483
4479,485
4480,485
4481,484
4482,484
4483,484
4484,483
4485,483
4486,482
4487,481
4488,481
4489,481
4490,481
4491,481
4492,482
4493,484
4494,483
4495,485
4496,484
4497,485
4498,484
4499,484
4500,483
4501,482
4502,482
4503,481
4504,480
4505,480
4506,481
4507,481
4508,481
4509,482
4510,483
4511,483
4512,485
4513,484
4514,484
4515,483
4516,484
4517,483
4518,481
4519,482
4520,480
4521,480
4522,480
4523,481
4524,480
4525,480
4526,482
4527,482
4528,483
4529,483
4530,484
4531,484
4532,483
4533,483
4534,482
4535,482
4536,482
4537,480
4538,480
4539,480
4540,481
4541,482
4542,482
4543,483
4544,483
4545,483
4546,483
4547,483
4548,483
4549,483
4550,483
4551,482
4552,481
4553,480
4554,480
4555,479
4556,480
4557,480
4558,480
4559,480
4560,480
4561,480
4562,480
4563,480
4564,480
4565,479
4566,479
4567,478
4568,477
4569,478
4570,475
4571,477
4572,477
4573,478
4574,480
4575,480
4576,482
4577,483
4578,485
4579,487
4580,489
4581,491
4582,494
4583,497
4584,500
4585,503
4586,506
4587,508
4588,514
4589,520
4590,525
4591,530
4592,535
4593,540
4594,544
4595,549
4596,550
4597,551
4598,552
4599,550
4600,549
4601,545
4602,540
4603,534
4604,530
4605,525
4606,520
4607,518
4608,516
4609,515
4610,511
4611,508
4612,506
4613,505
4614,502
4615,499
4616,496
4617,493
4618,492
4619,490
4620,488
4621,488
4622,488
4623,488
4624,488
4625,489
4626,490
4627,489
4628,490
4629,490
4630,490
4631,490
4632,495
4633,489
4634,488
4635,486
4636,486
4637,485
4638,484
4639,484
4640,485
4641,485
4642,485
4643,485
4644,486
4645,487
4646,486
4647,487
4648,486
4649,486
4650,485
4651,483
4652,484
4653,482
4654,482
4655,482
4656,481
4657,482
4658,482
4659,482
4660,484
4661,484
4662,485
4663,485
4664,485
4665,484
4666,483
4667,482
4668,481
4669,481
4670,480
4671,480
4672,479
4673,480
4674,480
4675,480
4676,482
4677,482
4678,482
4679,483
4680,483
4681,482
4682,482
4683,482
4684,482
4685,481
4686,481
4687,479
4688,478
4689,479
4690,479
4691,481
4692,480
4693,481
4694,482
4695,482
4696,482
4697,483
4698,482
4699,481
4700,481
4701,480
4702,479
4703,478
4704,477
4705,478
4706,479
4707,479
4708,479
4709,480
4710,481
4711,482
4712,483
4713,483
4714,482
4715,481
4716,481
4717,481
4718,478
4719,479
4720,477
4721,478
4722,477
4723,477
4724,478
4725,478
4726,479
4727,481
4728,481
4729,482
4730,481
4731,481
4732,481
4733,480
4734,480
4735,479
4736,478
4737,477
4738,477
4739,477
4740,478
4741,479
4742,478
4743,481
4744,480
4745,482
4746,480
4747,482
4748,481
4749,480
4750,480
4751,478
4752,479
4753,478
4754,477
4755,476
4756,477
4757,476
4758,478
4759,478
4760,480
4761,480
4762,481
4763,481
4764,482
4765,482
4766,482
4767,481
4768,480
4769,478
4770,478
4771,478
4772,478
4773,478
4774,480
4775,479
4776,481
4777,481
4778,482
4779,482
4780,482
4781,483
4782,482
4783,481
4784,480
4785,479
4786,479
4787,478
4788,478
4789,478
4790,479
4791,479
4792,480
4793,481
4794,482
4795,482
4796,483
4797,482
4798,483
4799,483
4800,482
4801,481
4802,480
4803,479
4804,479
4805,478
4806,478
4807,479
4808,480
4809,480
4810,482
4811,483
4812,483
4813,483
4814,484
4815,483
4816,482
4817,482
4818,480
4819,481
4820,479
4821,479
4822,479
4823,479
4824,480
4825,480
4826,482
4827,483
4828,483
4829,483
4830,484
4831,483
4832,484
4833,483
4834,483
4835,483
4836,482
4837,481
4838,481
4839,481
4840,482
4841,483
4842,483
4843,485
4844,485
4845,487
4846,487
4847,486
4848,486
4849,485
4850,484
4851,484
4852,483
4853,482
4854,482
4855,483
4856,482
4857,482
4858,482
4859,483
4860,484
4861,485
4862,485
4863,486
4864,486
4865,485
4866,484
4867,483
4868,482
4869,482
4870,481
4871,480
4872,480
4873,480
4874,481
4875,481
4876,483
4877,483
4878,484
4879,483
4880,484
4881,484
4882,484
4883,482
4884,482
4885,481
4886,480
4887,479
4888,480
4889,478
4890,479
4891,480
4892,480
4893,483
4894,482
4895,483
4896,483
4897,483
4898,483
4899,482
4900,482
4901,481
4902,481
4903,479
4904,479
4905,479
4906,478
4907,479
4908,479
4909,479
4910,481
4911,481
4912,483
4913,483
4914,482
4915,482
4916,481
4917,482
4918,490
4919,481
4920,478
4921,479
4922,479
4923,478
4924,479
4925,479
4926,481
4927,481
4928,483
4929,483
4930,483
4931,483
4932,482
4933,482
4934,481
4935,481
4936,479
4937,479
4938,478
4939,478
4940,479
4941,479
4942,480
4943,481
4944,482
4945,483
4946,483
4947,483
4948,483
4949,482
4950,482
4951,480
4952,480
4953,479
4954,478
4955,478
4956,479
4957,480
4958,479
4959,481
4960,481
4961,482
4962,483
4963,483
4964,483
4965,483
4966,481
4967,481
4968,480
4969,480
4970,478
4971,479
4972,478
4973,479
4974,479
4975,479
4976,482
4977,481
4978,482
4979,483
4980,484
4981,483
4982,483
4983,481
4984,481
4985,481
4986,480
4987,478
4988,478
4989,478
4990,479
4991,480
4992,480
4993,482
4994,481
4995,483
4996,483
4997,483
4998,482
