0,486
1,486
2,485
3,485
4,485
5,484
6,484
7,484
8,483
9,484
10,485
11,484
12,485
13,485
14,486
15,487
16,486
17,486
18,486
19,486
20,485
21,484
22,485
23,484
24,483
25,484
26,484
27,484
28,485
29,484
30,486
31,486
32,486
33,486
34,487
35,487
36,486
37,485
38,485
39,485
40,483
41,484
42,484
43,484
44,484
45,484
46,484
47,486
48,486
49,486
50,486
51,486
52,486
53,486
54,486
55,485
56,485
57,485
58,484
59,484
60,485
61,484
62,486
63,485
64,486
65,486
66,486
67,486
68,486
69,486
70,485
71,485
72,484
73,485
74,483
75,483
76,484
77,484
78,484
79,485
80,485
81,485
82,486
83,486
84,486
85,485
86,485
87,485
88,483
89,485
90,484
91,484
92,484
93,484
94,484
95,484
96,484
97,485
98,484
99,486
100,485
101,485
102,485
103,485
104,485
105,483
106,484
107,484
108,484
109,484
110,483
111,484
112,484
113,485
114,484
115,485
116,486
117,486
118,486
119,486
120,485
121,484
122,484
123,484
124,483
125,483
126,484
127,484
128,484
129,484
130,485
131,485
132,485
133,486
134,486
135,486
136,485
137,485
138,484
139,484
140,484
141,483
142,483
143,483
144,484
145,483
146,484
147,485
148,484
149,485
150,485
151,486
152,484
153,484
154,484
155,484
156,484
157,484
158,483
159,484
160,484
161,485
162,484
163,485
164,485
165,485
166,486
167,485
168,485
169,484
170,484
171,484
172,483
173,484
174,482
175,483
176,483
177,483
178,484
179,483
180,484
181,485
182,486
183,485
184,485
185,486
186,485
187,485
188,484
189,484
190,483
191,483
192,482
193,482
194,482
195,481
196,481
197,482
198,481
199,482
200,482
201,482
202,482
203,481
204,482
205,481
206,482
207,482
208,483
209,484
210,484
211,486
212,486
213,488
214,490
215,492
216,494
217,496
218,498
219,501
220,505
221,507
222,509
223,513
224,516
225,521
226,525
227,527
228,530
229,533
230,535
231,535
232,537
233,538
234,536
235,534
236,530
237,525
238,521
239,516
240,509
241,508
242,505
243,503
244,500
245,498
246,498
247,495
248,494
249,493
250,490
251,488
252,485
253,485
254,484
255,484
256,484
257,483
258,483
259,483
260,483
261,483
262,483
263,484
264,484
265,484
266,484
267,484
268,484
269,483
270,482
271,482
272,481
273,481
274,481
275,481
276,481
277,481
278,481
279,481
280,483
281,481
282,477
283,477
284,477
285,477
286,476
287,476
288,476
289,475
290,474
291,474
292,474
293,474
294,474
295,474
296,475
297,477
298,476
299,477
300,478
301,477
302,476
303,476
304,476
305,474
306,475
307,474
308,475
309,474
310,475
311,475
312,476
313,477
314,477
315,477
316,477
317,477
318,477
319,477
320,476
321,476
322,475
323,475
324,474
325,475
326,474
327,475
328,476
329,475
330,476
331,476
332,477
333,477
334,478
335,478
336,478
337,477
338,476
339,475
340,475
341,475
342,474
343,475
344,474
345,476
346,476
347,477
348,477
349,478
350,478
351,478
352,477
353,476
354,476
355,475
356,475
357,474
358,474
359,474
360,474
361,475
362,475
363,476
364,475
365,476
366,476
367,477
368,477
369,477
370,478
371,476
372,475
373,475
374,474
375,474
376,475
377,475
378,477
379,475
380,477
381,477
382,478
383,478
384,477
385,478
386,478
387,478
388,477
389,476
390,475
391,475
392,475
393,475
394,475
395,476
396,476
397,477
398,476
399,477
400,478
401,477
402,477
403,477
404,478
405,476
406,476
407,476
408,476
409,476
410,476
411,476
412,476
413,477
414,478
415,478
416,478
417,478
418,479
419,478
420,478
421,477
422,478
423,477
424,476
425,477
426,476
427,476
428,477
429,477
430,478
431,478
432,478
433,479
434,479
435,480
436,479
437,479
438,479
439,478
440,478
441,478
442,478
443,478
444,479
445,479
446,479
447,478
448,479
449,481
450,481
451,480
452,480
453,480
454,480
455,479
456,479
457,477
458,479
459,478
460,478
461,479
462,478
463,479
464,480
465,482
466,482
467,481
468,482
469,482
470,481
471,481
472,485
473,486
474,486
475,485
476,486
477,486
478,486
479,487
480,487
481,487
482,488
483,488
484,489
485,483
486,483
487,482
488,483
489,481
490,482
491,480
492,481
493,481
494,481
495,482
496,482
497,482
498,482
499,482
500,484
501,484
502,483
503,483
504,483
505,482
506,482
507,481
508,480
509,481
510,480
511,480
512,479
513,480
514,480
515,482
516,482
517,482
518,481
519,481
520,481
521,481
522,481
523,481
524,480
525,481
526,480
527,480
528,480
529,480
530,486
531,486
532,486
533,486
534,488
535,488
536,487
537,487
538,487
539,490
540,485
541,485
542,484
543,484
544,484
545,484
546,485
547,486
548,485
549,486
550,485
551,486
552,485
553,485
554,484
555,483
556,483
557,482
558,483
559,482
560,483
561,483
562,484
563,484
564,486
565,485
566,486
567,486
568,486
569,485
570,485
571,485
572,484
573,484
574,483
575,482
576,483
577,483
578,484
579,483
580,485
581,485
582,499
583,501
584,486
585,486
586,485
587,485
588,484
589,484
590,484
591,483
592,483
593,483
594,482
595,483
596,483
597,484
598,484
599,485
600,485
601,485
602,486
603,485
604,485
605,485
606,484
607,482
608,482
609,483
610,483
611,483
612,483
613,483
614,485
615,485
616,486
617,486
618,485
619,485
620,485
621,485
622,483
623,484
624,483
625,482
626,482
627,483
628,484
629,484
630,485
631,485
632,485
633,485
634,486
635,485
636,485
637,485
638,484
639,484
640,484
641,485
642,484
643,484
644,484
645,484
646,484
647,486
648,486
649,488
650,487
651,487
652,485
653,485
654,484
655,483
656,482
657,482
658,482
659,483
660,483
661,483
662,483
663,484
664,485
665,484
666,485
667,485
668,485
669,485
670,484
671,484
672,484
673,484
674,483
675,482
676,482
677,482
678,483
679,483
680,485
681,485
682,485
683,485
684,486
685,485
686,487
687,485
688,484
689,486
690,485
691,485
692,486
693,486
694,486
695,486
696,486
697,487
698,485
699,486
700,485
701,484
702,485
703,486
704,488
705,488
706,489
707,490
708,489
709,488
710,488
711,488
712,488
713,488
714,487
715,487
716,487
717,487
718,485
719,485
720,485
721,486
722,484
723,482
724,481
725,480
726,480
727,479
728,476
729,478
730,480
731,481
732,483
733,485
734,486
735,487
736,487
737,487
738,488
739,488
740,489
741,490
742,490
743,490
744,490
745,490
746,489
747,487
748,484
749,482
750,480
751,481
752,480
753,480
754,480
755,480
756,481
757,481
758,481
759,481
760,481
761,481
762,482
763,483
764,488
765,489
766,491
767,490
768,489
769,491
770,495
771,498
772,501
773,503
774,501
775,495
776,490
777,484
778,481
779,477
780,475
781,475
782,476
783,479
784,482
785,484
786,483
787,483
788,484
789,487
790,489
791,489
792,490
793,491
794,496
795,506
796,510
797,505
798,500
799,495
800,487
801,480
802,474
803,471
804,470
805,473
806,478
807,479
808,478
809,478
810,478
811,475
812,482
813,487
814,493
815,496
816,494
817,487
818,481
819,474
820,472
821,470
822,475
823,483
824,486
825,484
826,484
827,484
828,483
829,481
830,477
831,478
832,482
833,484
834,484
835,482
836,483
837,489
838,491
839,491
840,490
841,489
842,490
843,487
844,482
845,481
846,485
847,490
848,492
849,494
850,492
851,487
852,485
853,486
854,485
855,481
856,479
857,476
858,475
859,475
860,480
861,489
862,494
863,497
864,499
865,499
866,493
867,488
868,494
869,497
870,501
871,502
872,494
873,490
874,489
875,481
876,470
877,463
878,470
879,483
880,491
881,491
882,490
883,485
884,483
885,480
886,477
887,478
888,484
889,489
890,488
891,482
892,483
893,492
894,515
895,498
896,490
897,489
898,484
899,483
900,477
901,471
902,471
903,471
904,466
905,459
906,461
907,466
908,470
909,471
910,479
911,488
912,494
913,496
914,498
915,502
916,505
917,493
918,479
919,482
920,485
921,479
922,469
923,472
924,473
925,466
926,455
927,457
928,466
929,471
930,474
931,476
932,478
933,482
934,477
935,478
936,479
937,479
938,477
939,480
940,484
941,490
942,497
943,501
944,499
945,492
946,489
947,489
948,493
949,496
950,484
951,472
952,464
953,462
954,459
955,467
956,479
957,481
958,485
959,481
960,477
961,473
962,480
963,485
964,481
965,481
966,488
967,494
968,504
969,499
970,488
971,485
972,481
973,474
974,472
975,478
976,481
977,479
978,478
979,471
980,469
981,476
982,481
983,478
984,474
985,473
986,476
987,484
988,497
989,507
990,503
991,500
992,506
993,508
994,507
995,505
996,501
997,498
998,493
999,482
1000,490
1001,495
1002,493
1003,477
1004,470
1005,460
1006,467
1007,474
1008,469
1009,462
1010,457
1011,460
1012,466
1013,467
1014,470
1015,476
1016,483
1017,491
1018,501
1019,505
1020,502
1021,497
1022,494
1023,486
1024,480
1025,487
1026,482
1027,481
1028,475
1029,472
1030,470
1031,472
1032,477
1033,482
1034,489
1035,478
1036,471
1037,473
1038,465
1039,459
1040,471
1041,473
1042,480
1043,485
1044,486
1045,486
1046,485
1047,477
1048,468
1049,481
1050,488
1051,505
1052,511
1053,517
1054,509
1055,500
1056,492
1057,471
1058,460
1059,469
1060,472
1061,484
1062,489
1063,501
1064,488
1065,491
1066,495
1067,495
1068,495
1069,493
1070,485
1071,480
1072,487
1073,504
1074,515
1075,508
1076,502
1077,487
1078,465
1079,466
1080,487
1081,499
1082,507
1083,505
1084,491
1085,479
1086,473
1087,478
1088,483
1089,483
1090,487
1091,491
1092,490
1093,487
1094,493
1095,500
1096,494
1097,491
1098,492
1099,497
1100,509
1101,514
1102,527
1103,529
1104,499
1105,484
1106,486
1107,464
1108,446
1109,452
1110,463
1111,476
1112,491
1113,494
1114,496
1115,502
1116,519
1117,519
1118,504
1119,492
1120,482
1121,481
1122,492
1123,504
1124,492
1125,495
1126,495
1127,501
1128,498
1129,506
1130,517
1131,519
1132,525
1133,548
1134,553
1135,555
1136,549
1137,536
1138,521
1139,527
1140,531
1141,525
1142,510
1143,490
1144,487
1145,499
1146,505
1147,501
1148,499
1149,505
1150,511
1151,508
1152,508
1153,510
1154,510
1155,512
1156,506
1157,485
1158,476
1159,470
1160,477
1161,497
1162,506
1163,505
1164,508
1165,510
1166,516
1167,505
1168,502
1169,504
1170,506
1171,483
1172,458
1173,456
1174,479
1175,490
1176,500
1177,501
1178,505
1179,488
1180,479
1181,473
1182,480
1183,481
1184,485
1185,491
1186,503
1187,498
1188,494
1189,497
1190,499
1191,490
1192,476
1193,477
1194,475
1195,485
1196,496
1197,494
1198,489
1199,492
1200,508
1201,509
1202,502
1203,498
1204,489
1205,498
1206,539
1207,544
1208,499
1209,463
1210,435
1211,433
1212,458
1213,477
1214,485
1215,477
1216,472
1217,476
1218,494
1219,512
1220,503
1221,498
1222,492
1223,490
1224,484
1225,481
1226,492
1227,501
1228,507
1229,499
1230,485
1231,478
1232,484
1233,499
1234,503
1235,485
1236,490
1237,486
1238,488
1239,483
1240,480
1241,486
1242,491
1243,498
1244,500
1245,486
1246,475
1247,474
1248,472
1249,479
1250,483
1251,481
1252,483
1253,486
1254,483
1255,483
1256,478
1257,479
1258,487
1259,487
1260,490
1261,495
1262,491
1263,492
1264,497
1265,491
1266,489
1267,486
1268,485
1269,481
1270,466
1271,475
1272,493
1273,495
1274,492
1275,501
1276,511
1277,505
1278,496
1279,485
1280,489
1281,491
1282,495
1283,484
1284,478
1285,480
1286,488
1287,497
1288,503
1289,508
1290,500
1291,494
1292,485
1293,478
1294,462
1295,467
1296,467
1297,475
1298,483
1299,489
1300,492
1301,492
1302,492
1303,484
1304,490
1305,502
1306,526
1307,542
1308,532
1309,518
1310,510
1311,481
1312,473
1313,468
1314,454
1315,452
1316,470
1317,483
1318,485
1319,486
1320,496
1321,497
1322,503
1323,510
1324,508
1325,501
1326,494
1327,485
1328,476
1329,473
1330,481
1331,484
1332,487
1333,475
1334,485
1335,504
1336,502
1337,493
1338,491
1339,476
1340,472
1341,472
1342,471
1343,484
1344,492
1345,502
1346,515
1347,511
1348,517
1349,505
1350,471
1351,468
1352,471
1353,470
1354,474
1355,483
1356,485
1357,488
1358,494
1359,498
1360,498
1361,491
1362,494
1363,483
1364,479
1365,474
1366,476
1367,494
1368,514
1369,508
1370,503
1371,490
1372,472
1373,476
1374,479
1375,486
1376,487
1377,493
1378,500
1379,508
1380,527
1381,524
1382,507
1383,493
1384,478
1385,471
1386,484
1387,486
1388,493
1389,496
1390,497
1391,492
1392,499
1393,511
1394,509
1395,494
1396,494
1397,484
1398,477
1399,482
1400,482
1401,470
1402,481
1403,487
1404,504
1405,522
1406,521
1407,508
1408,490
1409,481
1410,487
1411,490
1412,483
1413,475
1414,480
1415,493
1416,492
1417,485
1418,481
1419,469
1420,459
1421,477
1422,494
1423,491
1424,486
1425,488
1426,487
1427,481
1428,486
1429,487
1430,495
1431,506
1432,519
1433,512
1434,482
1435,461
1436,457
1437,472
1438,477
1439,488
1440,483
1441,473
1442,479
1443,490
1444,479
1445,485
1446,497
1447,500
1448,492
1449,482
1450,472
1451,496
1452,504
1453,510
1454,504
1455,487
1456,447
1457,440
1458,462
1459,481
1460,489
1461,488
1462,478
1463,476
1464,475
1465,472
1466,475
1467,486
1468,493
1469,497
1470,497
1471,494
1472,495
1473,500
1474,489
1475,490
1476,513
1477,519
1478,496
1479,480
1480,462
1481,451
1482,474
1483,481
1484,494
1485,498
1486,480
1487,483
1488,481
1489,489
1490,479
1491,471
1492,465
1493,469
1494,469
1495,480
1496,489
1497,501
1498,505
1499,496
1500,491
1501,480
1502,479
1503,496
1504,510
1505,508
1506,495
1507,483
1508,473
1509,469
1510,466
1511,477
1512,477
1513,480
1514,486
1515,478
1516,464
1517,464
1518,487
1519,497
1520,495
1521,471
1522,462
1523,484
1524,504
1525,509
1526,518
1527,501
1528,475
1529,475
1530,469
1531,471
1532,465
1533,464
1534,471
1535,472
1536,488
1537,493
1538,491
1539,495
1540,475
1541,468
1542,477
1543,479
1544,472
1545,476
1546,471
1547,477
1548,490
1549,505
1550,506
1551,488
1552,462
1553,469
1554,491
1555,498
1556,501
1557,492
1558,474
1559,465
1560,468
1561,467
1562,462
1563,470
1564,470
1565,468
1566,471
1567,484
1568,492
1569,497
1570,491
1571,476
1572,466
1573,464
1574,486
1575,508
1576,507
1577,494
1578,483
1579,455
1580,469
1581,482
1582,469
1583,469
1584,475
1585,478
1586,475
1587,477
1588,470
1589,473
1590,482
1591,491
1592,499
1593,508
1594,486
1595,481
1596,477
1597,498
1598,507
1599,495
1600,482
1601,479
1602,485
1603,498
1604,508
1605,498
1606,485
1607,481
1608,481
1609,490
1610,474
1611,474
1612,472
1613,477
1614,479
1615,478
1616,483
1617,489
1618,503
1619,522
1620,522
1621,499
1622,489
1623,483
1624,497
1625,499
1626,508
1627,517
1628,500
1629,474
1630,452
1631,452
1632,476
1633,488
1634,483
1635,493
1636,519
1637,526
1638,517
1639,494
1640,452
1641,449
1642,466
1643,477
1644,485
1645,493
1646,501
1647,497
1648,486
1649,488
1650,483
1651,470
1652,473
1653,493
1654,496
1655,487
1656,470
1657,465
1658,471
1659,477
1660,482
1661,493
1662,498
1663,504
1664,506
1665,497
1666,491
1667,500
1668,511
1669,507
1670,494
1671,488
1672,478
1673,466
1674,477
1675,466
1676,463
1677,473
1678,476
1679,472
1680,477
1681,480
1682,479
1683,475
1684,479
1685,479
1686,482
1687,492
1688,501
1689,496
1690,504
1691,516
1692,511
1693,500
1694,477
1695,463
1696,462
1697,471
1698,481
1699,490
1700,492
1701,492
1702,490
1703,486
1704,481
1705,475
1706,473
1707,480
1708,494
1709,501
1710,507
1711,509
1712,498
1713,484
1714,487
1715,495
1716,498
1717,480
1718,467
1719,467
1720,477
1721,481
1722,482
1723,491
1724,504
1725,502
1726,498
1727,492
1728,475
1729,477
1730,483
1731,487
1732,500
1733,491
1734,492
1735,501
1736,497
1737,480
1738,469
1739,466
1740,474
1741,483
1742,486
1743,480
1744,474
1745,469
1746,475
1747,482
1748,486
1749,488
1750,485
1751,489
1752,482
1753,469
1754,474
1755,485
1756,502
1757,520
1758,511
1759,496
1760,492
1761,494
1762,509
1763,516
1764,499
1765,485
1766,494
1767,497
1768,486
1769,469
1770,448
1771,460
1772,466
1773,463
1774,457
1775,464
1776,475
1777,483
1778,487
1779,487
1780,485
1781,481
1782,481
1783,484
1784,496
1785,498
1786,486
1787,481
1788,485
1789,490
1790,491
1791,485
1792,483
1793,491
1794,497
1795,494
1796,487
1797,468
1798,469
1799,473
1800,477
1801,483
1802,492
1803,502
1804,509
1805,506
1806,503
1807,498
1808,481
1809,479
1810,473
1811,472
1812,471
1813,470
1814,470
1815,475
1816,482
1817,481
1818,479
1819,479
1820,482
1821,488
1822,490
1823,486
1824,494
1825,505
1826,514
1827,511
1828,504
1829,495
1830,483
1831,470
1832,472
1833,466
1834,465
1835,472
1836,485
1837,485
1838,482
1839,481
1840,473
1841,474
1842,479
1843,487
1844,493
1845,495
1846,488
1847,480
1848,472
1849,482
1850,488
1851,490
1852,494
1853,497
1854,498
1855,494
1856,485
1857,483
1858,471
1859,471
1860,483
1861,488
1862,485
1863,474
1864,466
1865,470
1866,475
1867,480
1868,487
1869,489
1870,491
1871,495
1872,485
1873,475
1874,472
1875,467
1876,474
1877,479
1878,485
1879,487
1880,486
1881,484
1882,482
1883,481
1884,486
1885,484
1886,481
1887,480
1888,481
1889,485
1890,489
1891,483
1892,481
1893,481
1894,478
1895,481
1896,479
1897,479
1898,482
1899,483
1900,481
1901,476
1902,478
1903,480
1904,481
1905,481
1906,480
1907,480
1908,481
1909,481
1910,481
1911,480
1912,481
1913,481
1914,483
1915,482
1916,483
1917,483
1918,482
1919,483
1920,482
1921,482
1922,481
1923,480
1924,480
1925,480
1926,481
1927,481
1928,480
1929,481
1930,480
1931,480
1932,482
1933,483
1934,482
1935,482
1936,482
1937,482
1938,482
1939,481
1940,481
1941,480
1942,480
1943,480
1944,477
1945,477
1946,479
1947,479
1948,479
1949,477
1950,477
1951,479
1952,479
1953,478
1954,478
1955,480
1956,479
1957,480
1958,481
1959,481
1960,482
1961,481
1962,483
1963,485
1964,485
1965,487
1966,491
1967,495
1968,495
1969,495
1970,496
1971,499
1972,498
1973,497
1974,496
1975,497
1976,499
1977,503
1978,506
1979,508
1980,509
1981,511
1982,513
1983,514
1984,514
1985,514
1986,513
1987,510
1988,505
1989,503
1990,499
1991,493
1992,493
1993,491
1994,489
1995,487
1996,488
1997,488
1998,488
1999,486
2000,485
2001,484
2002,484
2003,482
2004,482
2005,481
2006,480
2007,480
2008,480
2009,479
2010,479
2011,479
2012,480
2013,480
2014,481
2015,481
2016,481
2017,477
2018,480
2019,479
2020,479
2021,478
2022,478
2023,477
2024,477
2025,477
2026,477
2027,477
2028,473
2029,478
2030,479
2031,480
2032,479
2033,480
2034,480
2035,479
2036,479
2037,478
2038,477
2039,477
2040,477
2041,477
2042,476
2043,477
2044,477
2045,477
2046,477
2047,477
2048,478
2049,478
2050,479
2051,479
2052,479
2053,478
2054,479
2055,478
2056,477
2057,477
2058,477
2059,477
2060,477
2061,478
2062,478
2063,478
2064,478
2065,478
2066,479
2067,477
2068,479
2069,480
2070,479
2071,478
2072,478
2073,477
2074,477
2075,477
2076,477
2077,477
2078,477
2079,477
2080,478
2081,478
2082,478
2083,479
2084,478
2085,479
2086,478
2087,478
2088,478
2089,477
2090,477
2091,477
2092,476
2093,476
2094,477
2095,477
2096,477
2097,479
2098,478
2099,479
2100,479
2101,479
2102,478
2103,478
2104,478
2105,477
2106,476
2107,477
2108,476
2109,476
2110,476
2111,476
2112,479
2113,480
2114,481
2115,481
2116,481
2117,481
2118,481
2119,481
2120,480
2121,478
2122,478
2123,478
2124,480
2125,478
2126,478
2127,479
2128,478
2129,478
2130,478
2131,480
2132,480
2133,481
2134,480
2135,481
2136,480
2137,480
2138,479
2139,478
2140,478
2141,477
2142,478
2143,478
2144,478
2145,478
2146,478
2147,480
2148,480
2149,480
2150,480
2151,480
2152,480
2153,480
2154,480
2155,479
2156,479
2157,478
2158,478
2159,478
2160,477
2161,478
2162,479
2163,479
2164,481
2165,481
2166,481
2167,481
2168,481
2169,480
2170,480
2171,481
2172,480
2173,479
2174,479
2175,478
2176,478
2177,479
2178,479
2179,479
2180,480
2181,481
2182,481
2183,482
2184,481
2185,482
2186,481
2187,481
2188,494
2189,496
2190,480
2191,478
2192,479
2193,479
2194,479
2195,480
2196,480
2197,481
2198,482
2199,481
2200,483
2201,483
2202,482
2203,482
2204,482
2205,482
2206,480
2207,482
2208,480
2209,480
2210,480
2211,480
2212,481
2213,481
2214,482
2215,482
2216,483
2217,483
2218,483
2219,482
2220,482
2221,483
2222,482
2223,482
2224,480
2225,481
2226,481
2227,481
2228,481
2229,482
2230,482
2231,483
2232,482
2233,483
2234,484
2235,483
2236,483
2237,482
2238,483
2239,483
2240,482
2241,481
2242,481
2243,481
2244,481
2245,481
2246,482
2247,482
2248,482
2249,482
2250,483
2251,483
2252,483
2253,482
2254,481
2255,482
2256,481
2257,481
2258,480
2259,480
2260,479
2261,479
2262,479
2263,480
2264,480
2265,481
2266,481
2267,481
2268,481
2269,480
2270,481
2271,480
2272,478
2273,479
2274,477
2275,478
2276,477
2277,477
2278,478
2279,478
2280,478
2281,479
2282,479
2283,480
2284,480
2285,479
2286,480
2287,478
2288,478
2289,477
2290,477
2291,476
2292,476
2293,477
2294,477
2295,477
2296,477
2297,477
2298,479
2299,479
2300,479
2301,479
2302,478
2303,479
2304,478
2305,478
2306,478
2307,478
2308,477
2309,476
2310,477
2311,476
2312,477
2313,478
2314,478
2315,478
2316,478
2317,479
2318,479
2319,478
2320,478
2321,478
2322,477
2323,477
2324,477
2325,476
2326,476
2327,476
2328,477
2329,476
2330,477
2331,478
2332,478
2333,478
2334,478
2335,478
2336,478
2337,477
2338,478
2339,476
2340,477
2341,475
2342,475
2343,476
2344,476
2345,476
2346,476
2347,477
2348,477
2349,479
2350,479
2351,478
2352,477
2353,478
2354,477
2355,477
2356,476
2357,477
2358,476
2359,476
2360,476
2361,477
2362,477
2363,478
2364,478
2365,478
2366,479
2367,478
2368,478
2369,478
2370,477
2371,478
2372,477
2373,476
2374,476
2375,476
2376,475
2377,476
2378,477
2379,477
2380,477
2381,479
2382,478
2383,478
2384,479
2385,479
2386,478
2387,478
2388,477
2389,477
2390,476
2391,476
2392,477
2393,477
2394,476
2395,476
2396,476
2397,477
2398,478
2399,479
2400,478
2401,478
2402,478
2403,478
2404,478
2405,477
2406,477
2407,477
2408,477
2409,476
2410,477
2411,476
2412,476
2413,478
2414,478
2415,478
2416,479
2417,478
2418,479
2419,478
2420,478
2421,478
2422,477
2423,477
2424,477
2425,475
2426,476
2427,476
2428,477
2429,476
2430,478
2431,479
2432,478
2433,478
2434,479
2435,478
2436,479
2437,478
2438,477
2439,476
2440,477
2441,476
2442,476
2443,476
2444,477
2445,476
2446,476
2447,478
2448,477
2449,479
2450,479
2451,479
2452,479
2453,478
2454,478
2455,477
2456,478
2457,477
2458,477
2459,476
2460,477
2461,477
2462,477
2463,477
2464,478
2465,478
2466,479
2467,479
2468,479
2469,479
2470,478
2471,478
2472,477
2473,477
2474,476
2475,475
2476,475
2477,475
2478,475
2479,475
2480,476
2481,476
2482,476
2483,479
2484,477
2485,477
2486,477
2487,477
2488,476
2489,475
2490,476
2491,474
2492,475
2493,475
2494,475
2495,476
2496,476
2497,477
2498,477
2499,478
2500,477
2501,477
2502,477
2503,477
2504,477
2505,476
2506,476
2507,476
2508,475
2509,470
2510,475
2511,475
2512,475
2513,476
2514,478
2515,478
2516,478
2517,478
2518,479
2519,478
2520,478
2521,478
2522,476
2523,476
2524,476
2525,476
2526,476
2527,476
2528,476
2529,476
2530,477
2531,477
2532,476
2533,479
2534,473
2535,473
2536,472
2537,472
2538,472
2539,470
2540,470
2541,470
2542,470
2543,470
2544,470
2545,471
2546,470
2547,472
2548,472
2549,474
2550,473
2551,473
2552,473
2553,473
2554,472
2555,472
2556,472
2557,472
2558,471
2559,470
2560,470
2561,471
2562,471
2563,472
2564,473
2565,472
2566,473
2567,474
2568,474
2569,473
2570,473
2571,473
2572,472
2573,472
2574,472
2575,472
2576,472
2577,472
2578,472
2579,472
2580,473
2581,474
2582,474
2583,474
2584,475
2585,474
2586,474
2587,473
2588,474
2589,472
2590,473
2591,472
2592,472
2593,472
2594,472
2595,473
2596,472
2597,473
2598,474
2599,474
2600,475
2601,475
2602,474
2603,474
2604,474
2605,474
2606,473
2607,473
2608,472
2609,473
2610,472
2611,473
2612,473
2613,473
2614,475
2615,474
2616,475
2617,475
2618,475
2619,475
2620,476
2621,474
2622,474
2623,473
2624,472
2625,472
2626,478
2627,472
2628,473
2629,473
2630,474
2631,474
2632,476
2633,475
2634,475
2635,476
2636,475
2637,475
2638,474
2639,473
2640,474
2641,472
2642,475
2643,474
2644,473
2645,475
2646,475
2647,477
2648,476
2649,476
2650,477
2651,478
2652,483
2653,497
2654,496
2655,481
2656,481
2657,480
2658,480
2659,479
2660,480
2661,481
2662,481
2663,481
2664,482
2665,481
2666,482
2667,482
2668,482
2669,482
2670,482
2671,482
2672,481
2673,481
2674,480
2675,480
2676,480
2677,480
2678,481
2679,482
2680,481
2681,482
2682,482
2683,483
2684,483
2685,483
2686,482
2687,482
2688,481
2689,481
2690,481
2691,480
2692,480
2693,480
2694,481
2695,481
2696,481
2697,481
2698,482
2699,483
2700,483
2701,483
2702,482
2703,483
2704,482
2705,482
2706,481
2707,480
2708,480
2709,480
2710,479
2711,480
2712,481
2713,481
2714,482
2715,481
2716,482
2717,482
2718,483
2719,482
2720,482
2721,481
2722,481
2723,481
2724,479
2725,480
2726,481
2727,480
2728,480
2729,481
2730,480
2731,481
2732,482
2733,483
2734,482
2735,482
2736,482
2737,482
2738,482
2739,480
2740,481
2741,479
2742,480
2743,480
2744,480
2745,481
2746,480
2747,481
2748,481
2749,482
2750,483
2751,482
2752,483
2753,482
2754,482
2755,482
2756,481
2757,480
2758,480
2759,480
2760,479
2761,480
2762,481
2763,480
2764,482
2765,482
2766,483
2767,482
2768,483
2769,482
2770,482
2771,482
2772,481
2773,480
2774,480
2775,480
2776,480
2777,480
2778,480
2779,481
2780,481
2781,482
2782,481
2783,483
2784,483
2785,482
2786,482
2787,482
2788,481
2789,481
2790,481
2791,480
2792,480
2793,479
2794,481
2795,480
2796,481
2797,482
2798,482
2799,482
2800,481
2801,481
2802,480
2803,481
2804,492
2805,477
2806,476
2807,476
2808,476
2809,476
2810,477
2811,478
2812,478
2813,479
2814,480
2815,482
2816,483
2817,483
2818,484
2819,485
2820,485
2821,487
2822,488
2823,490
2824,491
2825,495
2826,499
2827,503
2828,506
2829,509
2830,517
2831,522
2832,525
2833,530
2834,533
2835,536
2836,539
2837,541
2838,541
2839,542
2840,542
2841,540
2842,538
2843,534
2844,529
2845,524
2846,519
2847,515
2848,510
2849,508
2850,507
2851,504
2852,500
2853,497
2854,494
2855,491
2856,489
2857,486
2858,483
2859,482
2860,480
2861,480
2862,480
2863,481
2864,482
2865,482
2866,483
2867,482
2868,482
2869,482
2870,481
2871,481
2872,481
2873,480
2874,479
2875,479
2876,479
2877,479
2878,479
2879,478
2880,479
2881,479
2882,480
2883,480
2884,480
2885,480
2886,480
2887,479
2888,479
2889,478
2890,478
2891,477
2892,477
2893,477
2894,478
2895,478
2896,477
2897,478
2898,478
2899,479
2900,480
2901,479
2902,479
2903,479
2904,478
2905,479
2906,478
2907,478
2908,476
2909,477
2910,477
2911,478
2912,478
2913,478
2914,479
2915,478
2916,480
2917,480
2918,479
2919,479
2920,479
2921,479
2922,478
2923,478
2924,477
2925,477
2926,477
2927,477
2928,478
2929,477
2930,479
2931,480
2932,479
2933,480
2934,480
2935,480
2936,479
2937,478
2938,479
2939,477
2940,477
2941,476
2942,476
2943,478
2944,477
2945,478
2946,477
2947,479
2948,478
2949,480
2950,480
2951,479
2952,480
2953,479
2954,479
2955,478
2956,477
2957,478
2958,477
2959,478
2960,478
2961,478
2962,478
2963,478
2964,479
2965,479
2966,480
2967,480
2968,480
2969,480
2970,479
2971,479
2972,479
2973,478
2974,478
2975,477
2976,478
2977,478
2978,478
2979,478
2980,479
2981,480
2982,480
2983,480
2984,481
2985,481
2986,481
2987,480
2988,479
2989,478
2990,479
2991,478
2992,477
2993,477
2994,478
2995,478
2996,478
2997,479
2998,480
2999,480
3000,480
3001,480
3002,480
3003,480
3004,480
3005,478
3006,476
3007,477
3008,476
3009,476
3010,476
3011,476
3012,476
3013,477
3014,478
3015,478
3016,479
3017,479
3018,479
3019,479
3020,479
3021,478
3022,477
3023,477
3024,477
3025,476
3026,477
3027,477
3028,477
3029,472
3030,477
3031,479
3032,478
3033,480
3034,480
3035,480
3036,479
3037,479
3038,479
3039,478
3040,477
3041,476
3042,473
3043,477
3044,477
3045,478
3046,477
3047,479
3048,480
3049,480
3050,480
3051,481
3052,480
3053,480
3054,480
3055,476
3056,478
3057,478
3058,478
3059,478
3060,478
3061,478
3062,479
3063,479
3064,479
3065,480
3066,480
3067,481
3068,481
3069,482
3070,478
3071,481
3072,480
3073,479
3074,479
3075,479
3076,479
3077,480
3078,480
3079,480
3080,481
3081,483
3082,482
3083,482
3084,482
3085,482
3086,482
3087,482
3088,482
3089,481
3090,481
3091,481
3092,482
3093,481
3094,478
3095,482
3096,482
3097,483
3098,484
3099,484
3100,484
3101,484
3102,484
3103,484
3104,485
3105,483
3106,483
3107,483
3108,482
3109,483
3110,482
3111,482
3112,483
3113,484
3114,484
3115,484
3116,484
3117,484
3118,484
3119,484
3120,484
3121,483
3122,483
3123,482
3124,481
3125,480
3126,481
3127,481
3128,481
3129,481
3130,481
3131,482
3132,482
3133,484
3134,482
3135,481
3136,481
3137,481
3138,481
3139,480
3140,480
3141,478
3142,478
3143,479
3144,478
3145,478
3146,479
3147,497
3148,481
3149,481
3150,476
3151,476
3152,476
3153,476
3154,475
3155,475
3156,474
3157,473
3158,473
3159,473
3160,473
3161,473
3162,473
3163,474
3164,475
3165,475
3166,476
3167,476
3168,476
3169,476
3170,475
3171,475
3172,476
3173,476
3174,474
3175,475
3176,475
3177,476
3178,476
3179,476
3180,476
3181,477
3182,483
3183,483
3184,496
3185,483
3186,483
3187,483
3188,482
3189,482
3190,481
3191,481
3192,481
3193,480
3194,480
3195,481
3196,481
3197,481
3198,482
3199,483
3200,483
3201,484
3202,482
3203,483
3204,482
3205,481
3206,480
3207,481
3208,479
3209,479
3210,479
3211,480
3212,480
3213,480
3214,482
3215,482
3216,483
3217,483
3218,483
3219,483
3220,483
3221,482
3222,482
3223,481
3224,481
3225,480
3226,480
3227,481
3228,480
3229,481
3230,481
3231,482
3232,481
3233,482
3234,482
3235,483
3236,482
3237,482
3238,482
3239,481
3240,481
3241,480
3242,480
3243,480
3244,481
3245,482
3246,481
3247,482
3248,482
3249,482
3250,482
3251,482
3252,482
3253,483
3254,482
3255,481
3256,481
3257,481
3258,480
3259,480
3260,479
3261,480
3262,481
3263,481
3264,481
3265,482
3266,483
3267,483
3268,483
3269,482
3270,483
3271,482
3272,481
3273,480
3274,481
3275,481
3276,481
3277,481
3278,482
3279,481
3280,482
3281,483
3282,482
3283,484
3284,482
3285,483
3286,482
3287,483
3288,482
3289,481
3290,481
3291,481
3292,481
3293,481
3294,480
3295,481
3296,481
3297,481
3298,483
3299,483
3300,482
3301,483
3302,483
3303,482
3304,481
3305,482
3306,481
3307,482
3308,480
3309,480
3310,480
3311,481
3312,481
3313,482
3314,482
3315,482
3316,482
3317,483
3318,483
3319,483
3320,483
3321,483
3322,482
3323,481
3324,481
3325,480
3326,481
3327,480
3328,481
3329,481
3330,482
3331,483
3332,482
3333,483
3334,484
3335,483
3336,483
3337,482
3338,482
3339,482
3340,482
3341,481
3342,481
3343,481
3344,481
3345,481
3346,482
3347,482
3348,483
3349,482
3350,482
3351,483
3352,482
3353,483
3354,483
3355,483
3356,481
3357,481
3358,481
3359,480
3360,480
3361,481
3362,482
3363,482
3364,482
3365,483
3366,483
3367,483
3368,483
3369,483
3370,483
3371,482
3372,482
3373,482
3374,481
3375,481
3376,481
3377,481
3378,481
3379,481
3380,482
3381,483
3382,482
3383,483
3384,484
3385,483
3386,483
3387,482
3388,483
3389,482
3390,481
3391,481
3392,480
3393,481
3394,481
3395,482
3396,482
3397,482
3398,482
3399,484
3400,483
3401,483
3402,484
3403,483
3404,483
3405,482
3406,482
3407,481
3408,481
3409,481
3410,481
3411,481
3412,481
3413,482
3414,482
3415,482
3416,483
3417,498
3418,499
3419,500
3420,501
3421,484
3422,483
3423,482
3424,481
3425,481
3426,481
3427,481
3428,480
3429,482
3430,482
3431,482
3432,483
3433,483
3434,483
3435,483
3436,483
3437,483
3438,483
3439,482
3440,482
3441,482
3442,481
3443,481
3444,481
3445,482
3446,482
3447,482
3448,482
3449,482
3450,483
3451,483
3452,482
3453,483
3454,482
3455,483
3456,481
3457,482
3458,481
3459,480
3460,480
3461,480
3462,480
3463,481
3464,486
3465,482
3466,483
3467,482
3468,482
3469,481
3470,482
3471,482
3472,482
3473,482
3474,481
3475,481
3476,481
3477,481
3478,481
3479,481
3480,482
3481,482
3482,483
3483,483
3484,483
3485,483
3486,483
3487,483
3488,482
3489,482
3490,482
3491,481
3492,481
3493,482
3494,481
3495,482
3496,481
3497,482
3498,482
3499,482
3500,484
3501,484
3502,484
3503,483
3504,483
3505,482
3506,482
3507,482
3508,480
3509,480
3510,481
3511,481
3512,482
3513,482
3514,483
3515,482
3516,483
3517,483
3518,483
3519,483
3520,483
3521,482
3522,483
3523,482
3524,481
3525,481
3526,480
3527,481
3528,482
3529,482
3530,480
3531,481
3532,480
3533,482
3534,482
3535,482
3536,482
3537,481
3538,481
3539,481
3540,481
3541,480
3542,479
3543,480
3544,479
3545,481
3546,480
3547,480
3548,481
3549,481
3550,481
3551,482
3552,481
3553,481
3554,480
3555,480
3556,481
3557,480
3558,480
3559,481
3560,480
3561,479
3562,480
3563,480
3564,481
3565,482
3566,482
3567,482
3568,482
3569,482
3570,481
3571,480
3572,480
3573,481
3574,480
3575,480
3576,479
3577,480
3578,481
3579,480
3580,481
3581,481
3582,481
3583,482
3584,481
3585,481
3586,482
3587,481
3588,481
3589,481
3590,481
3591,480
3592,480
3593,479
3594,479
3595,480
3596,480
3597,480
3598,481
3599,481
3600,481
3601,481
3602,480
3603,479
3604,478
3605,478
3606,477
3607,476
3608,476
3609,476
3610,476
3611,477
3612,481
3613,478
3614,480
3615,481
3616,483
3617,483
3618,484
3619,484
3620,483
3621,486
3622,487
3623,488
3624,490
3625,492
3626,495
3627,500
3628,503
3629,507
3630,510
3631,518
3632,521
3633,526
3634,529
3635,533
3636,535
3637,536
3638,537
3639,538
3640,538
3641,538
3642,536
3643,533
3644,529
3645,524
3646,519
3647,515
3648,512
3649,508
3650,507
3651,504
3652,501
3653,498
3654,496
3655,493
3656,491
3657,488
3658,485
3659,483
3660,481
3661,481
3662,481
3663,480
3664,481
3665,483
3666,482
3667,482
3668,483
3669,482
3670,481
3671,481
3672,481
3673,481
3674,479
3675,478
3676,479
3677,478
3678,479
3679,479
3680,480
3681,480
3682,480
3683,481
3684,481
3685,481
3686,481
3687,480
3688,480
3689,478
3690,477
3691,478
3692,477
3693,478
3694,478
3695,478
3696,478
3697,479
3698,482
3699,481
3700,481
3701,482
3702,482
3703,482
3704,481
3705,481
3706,480
3707,482
3708,493
3709,480
3710,479
3711,478
3712,479
3713,480
3714,481
3715,481
3716,482
3717,482
3718,481
3719,481
3720,481
3721,481
3722,480
3723,479
3724,480
3725,479
3726,479
3727,479
3728,479
3729,479
3730,480
3731,480
3732,481
3733,482
3734,482
3735,481
3736,481
3737,481
3738,480
3739,480
3740,480
3741,479
3742,479
3743,479
3744,479
3745,480
3746,479
3747,480
3748,481
3749,481
3750,481
3751,482
3752,482
3753,482
3754,481
3755,481
3756,480
3757,481
3758,479
3759,478
3760,478
3761,478
3762,479
3763,479
3764,480
3765,480
3766,481
3767,480
3768,482
3769,481
3770,481
3771,480
3772,479
3773,480
3774,479
3775,479
3776,479
3777,479
3778,480
3779,481
3780,480
3781,482
3782,481
3783,481
3784,481
3785,481
3786,481
3787,481
3788,482
3789,481
3790,480
3791,480
3792,480
3793,479
3794,480
3795,479
3796,479
3797,480
3798,480
3799,480
3800,482
3801,482
3802,482
3803,481
3804,481
3805,481
3806,481
3807,480
3808,480
3809,479
3810,479
3811,480
3812,480
3813,480
3814,480
3815,481
3816,481
3817,482
3818,482
3819,482
3820,481
3821,481
3822,480
3823,480
3824,480
3825,480
3826,479
3827,480
3828,494
3829,480
3830,481
3831,482
3832,482
3833,482
3834,483
3835,482
3836,482
3837,483
3838,482
3839,481
3840,480
3841,480
3842,479
3843,480
3844,480
3845,480
3846,481
3847,481
3848,482
3849,482
3850,482
3851,483
3852,482
3853,482
3854,482
3855,482
3856,481
3857,481
3858,481
3859,481
3860,481
3861,481
3862,481
3863,481
3864,484
3865,483
3866,484
3867,484
3868,484
3869,483
3870,483
3871,483
3872,482
3873,482
3874,487
3875,482
3876,483
3877,482
3878,483
3879,482
3880,483
3881,484
3882,484
3883,485
3884,486
3885,486
3886,485
3887,485
3888,485
3889,484
3890,484
3891,483
3892,483
3893,484
3894,484
3895,484
3896,484
3897,485
3898,486
3899,486
3900,486
3901,487
3902,487
3903,487
3904,486
3905,485
3906,484
3907,484
3908,483
3909,484
3910,484
3911,483
3912,484
3913,484
3914,485
3915,485
3916,485
3917,485
3918,484
3919,484
3920,484
3921,484
3922,483
3923,482
3924,482
3925,482
3926,481
3927,482
3928,482
3929,482
3930,482
3931,483
3932,483
3933,483
3934,483
3935,483
3936,482
3937,482
3938,482
3939,481
3940,481
3941,482
3942,481
3943,481
3944,480
3945,480
3946,480
3947,480
3948,482
3949,483
3950,482
3951,483
3952,482
3953,483
3954,482
3955,481
3956,481
3957,480
3958,480
3959,479
3960,478
3961,479
3962,480
3963,480
3964,481
3965,481
3966,482
3967,482
3968,483
3969,482
3970,481
3971,481
3972,482
3973,480
3974,481
3975,480
3976,480
3977,480
3978,480
3979,481
3980,481
3981,482
3982,481
3983,482
3984,482
3985,482
3986,482
3987,482
3988,482
3989,480
3990,481
3991,480
3992,480
3993,480
3994,480
3995,480
3996,481
3997,481
3998,482
3999,482
4000,482
4001,483
4002,483
4003,483
4004,482
4005,481
4006,481
4007,480
4008,480
4009,480
4010,479
4011,480
4012,480
4013,480
4014,481
4015,482
4016,482
4017,482
4018,482
4019,482
4020,481
4021,482
4022,481
4023,480
4024,480
4025,479
4026,480
4027,480
4028,481
4029,481
4030,481
4031,482
4032,481
4033,481
4034,482
4035,482
4036,482
4037,482
4038,482
4039,482
4040,481
4041,481
4042,481
4043,481
4044,482
4045,482
4046,482
4047,482
4048,482
4049,482
4050,483
4051,483
4052,482
4053,482
4054,482
4055,482
4056,482
4057,482
4058,482
4059,482
4060,484
4061,484
4062,485
4063,486
4064,488
4065,486
4066,486
4067,489
4068,490
4069,490
4070,488
4071,485
4072,485
4073,482
4074,482
4075,482
4076,484
4077,483
4078,480
4079,483
4080,489
4081,495
4082,492
4083,491
4084,489
4085,488
4086,486
4087,482
4088,479
4089,478
4090,476
4091,475
4092,474
4093,476
4094,478
4095,478
4096,481
4097,483
4098,483
4099,484
4100,489
4101,488
4102,486
4103,480
4104,475
4105,475
4106,472
4107,473
4108,472
4109,472
4110,474
4111,478
4112,481
4113,483
4114,485
4115,483
4116,481
4117,480
4118,480
4119,482
4120,482
4121,481
4122,482
4123,483
4124,485
4125,486
4126,487
4127,484
4128,479
4129,478
4130,478
4131,478
4132,479
4133,480
4134,480
4135,482
4136,481
4137,479
4138,475
4139,472
4140,469
4141,471
4142,476
4143,481
4144,482
4145,484
4146,486
4147,489
4148,490
4149,492
4150,496
4151,494
4152,490
4153,485
4154,485
4155,486
4156,481
4157,476
4158,476
4159,486
4160,496
4161,498
4162,498
4163,494
4164,492
4165,485
4166,475
4167,465
4168,464
4169,472
4170,478
4171,498
4172,484
4173,487
4174,484
4175,485
4176,486
4177,487
4178,482
4179,480
4180,484
4181,494
4182,493
4183,492
4184,493
4185,492
4186,482
4187,473
4188,465
4189,466
4190,468
4191,472
4192,473
4193,474
4194,477
4195,480
4196,474
4197,471
4198,469
4199,466
4200,471
4201,476
4202,476
4203,481
4204,486
4205,487
4206,481
4207,475
4208,470
4209,471
4210,470
4211,469
4212,472
4213,485
4214,488
4215,492
4216,494
4217,486
4218,482
4219,472
4220,461
4221,462
4222,468
4223,475
4224,490
4225,497
4226,499
4227,505
4228,508
4229,505
4230,493
4231,490
4232,486
4233,489
4234,488
4235,483
4236,481
4237,485
4238,489
4239,482
4240,473
4241,470
4242,475
4243,481
4244,478
4245,483
4246,500
4247,509
4248,497
4249,490
4250,482
4251,481
4252,491
4253,505
4254,512
4255,511
4256,520
4257,498
4258,478
4259,454
4260,454
4261,458
4262,476
4263,492
4264,496
4265,511
4266,522
4267,531
4268,525
4269,505
4270,492
4271,485
4272,482
4273,472
4274,476
4275,490
4276,508
4277,521
4278,518
4279,519
4280,519
4281,510
4282,492
4283,489
4284,494
4285,479
4286,468
4287,467
4288,464
4289,442
4290,438
4291,440
4292,453
4293,469
4294,475
4295,487
4296,491
4297,493
4298,492
4299,500
4300,508
4301,499
4302,499
4303,492
4304,483
4305,475
4306,476
4307,490
4308,494
4309,507
4310,525
4311,525
4312,489
4313,474
4314,466
4315,442
4316,438
4317,454
4318,469
4319,477
4320,488
4321,502
4322,509
4323,512
4324,501
4325,489
4326,480
4327,480
4328,481
4329,484
4330,488
4331,493
4332,494
4333,499
4334,501
4335,493
4336,478
4337,472
4338,485
4339,497
4340,496
4341,484
4342,486
4343,488
4344,505
4345,522
4346,517
4347,498
4348,477
4349,449
4350,456
4351,463
4352,476
4353,482
4354,484
4355,512
4356,529
4357,536
4358,529
4359,507
4360,469
4361,463
4362,465
4363,466
4364,472
4365,490
4366,493
4367,484
4368,474
4369,480
4370,485
4371,489
4372,487
4373,483
4374,479
4375,478
4376,510
4377,550
4378,566
4379,554
4380,504
4381,429
4382,410
4383,440
4384,461
4385,475
4386,475
4387,476
4388,467
4389,477
4390,482
4391,483
4392,493
4393,497
4394,507
4395,507
4396,491
4397,467
4398,474
4399,474
4400,481
4401,494
4402,509
4403,520
4404,533
4405,531
4406,509
4407,472
4408,451
4409,466
4410,467
4411,477
4412,498
4413,501
4414,483
4415,464
4416,452
4417,464
4418,504
4419,517
4420,506
4421,485
4422,471
4423,471
4424,490
4425,499
4426,496
4427,494
4428,492
4429,487
4430,481
4431,480
4432,489
4433,500
4434,507
4435,519
4436,521
4437,520
4438,512
4439,511
4440,513
4441,520
4442,523
4443,526
4444,526
4445,534
4446,561
4447,578
4448,566
4449,570
4450,561
4451,544
4452,538
4453,526
4454,506
4455,499
4456,490
4457,485
4458,498
4459,506
4460,505
4461,497
4462,487
4463,473
4464,466
4465,480
4466,485
4467,480
4468,480
4469,477
4470,482
4471,485
4472,498
4473,511
4474,530
4475,523
4476,511
4477,503
4478,483
4479,484
4480,494
4481,491
4482,481
4483,462
4484,454
4485,458
4486,461
4487,478
4488,496
4489,503
4490,503
4491,487
4492,464
4493,459
4494,462
4495,468
4496,475
4497,480
4498,482
4499,488
4500,492
4501,489
4502,484
4503,490
4504,497
4505,488
4506,477
4507,482
4508,486
4509,479
4510,481
4511,489
4512,495
4513,505
4514,506
4515,499
4516,487
4517,478
4518,472
4519,465
4520,457
4521,467
4522,474
4523,482
4524,478
4525,475
4526,478
4527,471
4528,478
4529,482
4530,477
4531,476
4532,479
4533,481
4534,488
4535,495
4536,501
4537,495
4538,478
4539,476
4540,485
4541,501
4542,506
4543,521
4544,530
4545,525
4546,504
4547,478
4548,453
4549,441
4550,452
4551,467
4552,485
4553,494
4554,491
4555,479
4556,477
4557,478
4558,472
4559,476
4560,479
4561,483
4562,481
4563,475
4564,477
4565,482
4566,488
4567,493
4568,488
4569,488
4570,481
4571,493
4572,501
4573,493
4574,477
4575,478
4576,483
4577,490
4578,492
4579,482
4580,471
4581,479
4582,478
4583,480
4584,486
4585,507
4586,499
4587,483
4588,471
4589,466
4590,477
4591,485
4592,481
4593,477
4594,481
4595,482
4596,473
4597,467
4598,462
4599,474
4600,479
4601,482
4602,478
4603,479
4604,471
4605,474
4606,490
4607,504
4608,509
4609,522
4610,502
4611,474
4612,471
4613,466
4614,476
4615,465
4616,466
4617,470
4618,475
4619,483
4620,489
4621,482
4622,476
4623,477
4624,482
4625,481
4626,478
4627,476
4628,460
4629,465
4630,465
4631,483
4632,494
4633,497
4634,495
4635,490
4636,486
4637,490
4638,493
4639,474
4640,465
4641,481
4642,504
4643,494
4644,491
4645,476
4646,484
4647,482
4648,485
4649,474
4650,467
4651,480
4652,483
4653,474
4654,468
4655,483
4656,494
4657,503
4658,510
4659,524
4660,531
4661,529
4662,518
4663,477
4664,437
4665,432
4666,438
4667,447
4668,463
4669,466
4670,468
4671,481
4672,509
4673,508
4674,502
4675,492
4676,492
4677,491
4678,495
4679,491
4680,467
4681,464
4682,468
4683,484
4684,500
4685,509
4686,502
4687,482
4688,477
4689,473
4690,474
4691,478
4692,471
4693,465
4694,473
4695,477
4696,477
4697,467
4698,471
4699,482
4700,489
4701,492
4702,491
4703,487
4704,477
4705,470
4706,478
4707,490
4708,492
4709,489
4710,483
4711,482
4712,480
4713,487
4714,502
4715,506
4716,502
4717,488
4718,474
4719,478
4720,473
4721,474
4722,477
4723,478
4724,476
4725,482
4726,485
4727,488
4728,486
4729,478
4730,473
4731,474
4732,479
4733,480
4734,489
4735,497
4736,500
4737,485
4738,475
4739,484
4740,490
4741,484
4742,472
4743,473
4744,477
4745,470
4746,483
4747,482
4748,489
4749,496
4750,502
4751,500
4752,500
4753,505
4754,490
4755,471
4756,477
4757,472
4758,474
4759,476
4760,479
4761,505
4762,522
4763,525
4764,486
4765,464
4766,464
4767,452
4768,476
4769,491
4770,495
4771,491
4772,480
4773,470
4774,460
4775,457
4776,468
4777,477
4778,495
4779,485
4780,472
4781,475
4782,478
4783,485
4784,503
4785,506
4786,495
4787,489
4788,474
4789,471
4790,466
4791,470
4792,474
4793,462
4794,465
4795,475
4796,475
4797,482
4798,487
4799,487
4800,488
4801,486
4802,487
4803,493
4804,495
4805,493
4806,477
4807,463
4808,469
4809,477
4810,479
4811,481
4812,484
4813,487
4814,488
4815,487
4816,493
4817,490
4818,486
4819,500
4820,520
4821,511
4822,501
4823,476
4824,444
4825,444
4826,462
4827,475
4828,476
4829,474
4830,473
4831,475
4832,478
4833,481
4834,481
4835,477
4836,482
4837,500
4838,503
4839,490
4840,488
4841,501
4842,501
4843,489
4844,474
4845,457
4846,454
4847,466
4848,483
4849,489
4850,493
4851,503
4852,525
4853,522
4854,516
4855,503
4856,489
4857,490
4858,502
4859,500
4860,482
4861,456
4862,445
4863,455
4864,464
4865,472
4866,471
4867,469
4868,465
4869,466
4870,471
4871,476
4872,477
4873,476
4874,480
4875,487
4876,494
4877,494
4878,490
4879,510
4880,546
4881,549
4882,521
4883,470
4884,440
4885,441
4886,475
4887,490
4888,491
4889,476
4890,455
4891,460
4892,469
4893,468
4894,467
4895,480
4896,482
4897,479
4898,479
4899,477
4900,478
4901,475
4902,475
4903,479
4904,482
4905,484
4906,492
4907,496
4908,505
4909,506
4910,502
4911,500
4912,490
4913,483
4914,470
4915,456
4916,466
4917,474
4918,484
4919,482
4920,475
4921,471
4922,465
4923,470
4924,475
4925,472
4926,470
4927,475
4928,487
4929,481
4930,476
4931,477
4932,491
4933,490
4934,497
4935,505
4936,512
4937,527
4938,523
4939,518
4940,493
4941,469
4942,457
4943,453
4944,459
4945,456
4946,456
4947,466
4948,480
4949,484
4950,489
4951,489
4952,490
4953,498
4954,507
4955,504
4956,495
4957,483
4958,472
4959,464
4960,461
4961,459
4962,466
4963,478
4964,488
4965,487
4966,496
4967,500
4968,486
4969,479
4970,463
4971,463
4972,478
4973,486
4974,482
4975,479
4976,478
4977,481
4978,488
4979,492
4980,492
4981,483
4982,479
4983,478
4984,474
4985,475
4986,480
4987,484
4988,482
4989,479
4990,475
4991,473
4992,477
4993,493
4994,505
4995,507
4996,505
4997,478
4998,458
4999,472
5000,485
5001,495
5002,497
5003,487
5004,470
5005,469
5006,469
5007,467
5008,468
5009,473
5010,475
5011,477
5012,478
5013,483
5014,487
5015,488
5016,490
5017,486
5018,494
5019,478
5020,470
5021,472
5022,476
5023,476
5024,482
5025,487
5026,482
5027,482
5028,486
5029,486
5030,495
5031,499
5032,496
5033,487
5034,470
5035,468
5036,467
5037,474
5038,481
5039,482
5040,484
5041,483
5042,478
5043,478
5044,474
5045,469
5046,474
5047,481
5048,483
5049,486
5050,488
5051,492
5052,492
5053,486
5054,486
5055,484
5056,477
5057,476
5058,473
5059,468
5060,468
5061,471
5062,474
5063,474
5064,470
5065,473
5066,476
5067,478
5068,479
5069,479
5070,479
5071,479
5072,479
5073,478
5074,479
5075,478
5076,479
5077,479
5078,479
5079,479
5080,480
5081,481
5082,481
5083,481
5084,482
5085,481
5086,481
5087,480
5088,480
5089,480
5090,479
5091,479
5092,479
5093,478
5094,478
5095,479
5096,479
5097,479
5098,480
5099,480
5100,481
5101,481
5102,481
5103,481
5104,480
5105,480
5106,479
5107,479
5108,479
5109,478
5110,478
5111,478
5112,479
5113,478
5114,479
5115,481
5116,480
5117,481
5118,481
5119,481
5120,481
5121,480
5122,472
5123,477
5124,478
5125,476
5126,476
5127,476
5128,476
5129,476
5130,478
5131,478
5132,478
5133,479
5134,479
5135,474
5136,479
5137,479
5138,478
5139,477
5140,477
5141,477
5142,476
5143,476
5144,476
5145,477
5146,478
5147,478
5148,478
5149,479
5150,480
5151,480
5152,479
5153,481
5154,478
5155,478
5156,478
5157,478
5158,477
5159,477
5160,478
5161,476
5162,477
5163,477
5164,479
5165,480
5166,479
5167,481
5168,481
5169,481
5170,480
5171,480
5172,478
5173,473
5174,479
5175,478
5176,478
5177,478
5178,478
5179,478
5180,476
5181,479
5182,478
5183,478
5184,478
5185,477
5186,476
5187,476
5188,476
5189,476
5190,476
5191,476
5192,475
5193,476
5194,477
5195,496
5196,481
5197,480
5198,476
5199,477
5200,476
5201,479
5202,480
5203,482
5204,483
5205,485
5206,487
5207,490
5208,492
5209,495
5210,497
5211,501
5212,506
5213,505
5214,514
5215,515
5216,519
5217,523
5218,524
5219,526
5220,527
5221,525
5222,524
5223,521
5224,517
5225,510
5226,507
5227,503
5228,502
5229,499
5230,498
5231,496
5232,493
5233,491
5234,489
5235,487
5236,485
5237,482
5238,480
5239,472
5240,475
5241,474
5242,474
5243,474
5244,473
5245,474
5246,475
5247,475
5248,476
5249,476
5250,476
5251,475
5252,475
5253,475
5254,475
5255,474
5256,474
5257,473
5258,472
5259,472
5260,472
5261,472
5262,473
5263,473
5264,473
5265,470
5266,474
5267,474
5268,473
5269,474
5270,473
5271,473
5272,473
5273,473
5274,472
5275,471
5276,472
5277,472
5278,465
5279,472
5280,472
5281,473
5282,473
5283,474
5284,474
5285,474
5286,473
5287,473
5288,474
5289,474
5290,474
5291,475
5292,473
5293,473
5294,473
5295,472
5296,473
5297,474
5298,475
5299,480
5300,480
5301,481
5302,494
5303,496
5304,495
5305,489
5306,479
5307,478
5308,478
5309,477
5310,477
5311,478
5312,478
5313,478
5314,479
5315,480
5316,480
5317,481
5318,480
5319,480
5320,481
5321,480
5322,480
5323,478
5324,478
5325,477
5326,478
5327,478
5328,478
5329,477
5330,479
5331,479
5332,480
5333,480
5334,480
5335,480
5336,480
5337,479
5338,479
5339,480
5340,479
5341,479
5342,478
5343,477
5344,477
5345,478
5346,478
5347,479
5348,479
5349,479
5350,480
5351,480
5352,480
5353,480
5354,480
5355,479
5356,479
5357,478
5358,478
5359,477
5360,477
5361,478
5362,478
5363,478
5364,479
5365,479
5366,479
5367,481
5368,480
5369,480
5370,481
5371,479
5372,479
5373,478
5374,479
5375,478
5376,477
5377,477
5378,478
5379,478
5380,479
5381,479
5382,479
5383,480
5384,479
5385,480
5386,480
5387,479
5388,479
5389,478
5390,478
5391,478
5392,478
5393,477
5394,478
5395,477
5396,478
5397,478
5398,479
5399,478
5400,481
5401,481
5402,480
5403,480
5404,479
5405,479
5406,479
5407,478
5408,477
5409,477
5410,477
5411,478
5412,478
5413,478
5414,478
5415,479
5416,479
5417,481
5418,481
5419,480
5420,479
5421,480
5422,479
5423,479
5424,478
5425,478
5426,477
5427,478
5428,478
5429,478
5430,478
5431,478
5432,480
5433,480
5434,480
5435,481
5436,480
5437,480
5438,479
5439,480
5440,479
5441,479
5442,479
5443,478
5444,478
5445,479
5446,479
5447,479
5448,480
5449,480
5450,481
5451,481
5452,480
5453,480
5454,481
5455,481
5456,480
5457,480
5458,479
5459,479
5460,478
5461,479
5462,479
5463,480
5464,481
5465,482
5466,482
5467,483
5468,482
5469,482
5470,482
5471,482
5472,481
5473,480
5474,481
5475,480
5476,481
5477,480
5478,481
5479,481
5480,481
5481,482
5482,482
5483,483
5484,483
5485,483
5486,481
5487,482
5488,482
5489,481
5490,481
5491,481
5492,480
5493,479
5494,479
5495,480
5496,480
5497,479
5498,480
5499,480
5500,480
5501,481
5502,481
5503,480
5504,480
5505,480
5506,479
5507,478
5508,478
5509,478
5510,478
5511,478
5512,481
5513,477
5514,478
5515,479
5516,479
5517,480
5518,480
5519,480
5520,478
5521,479
5522,478
5523,478
5524,478
5525,477
5526,477
5527,476
5528,478
5529,478
5530,478
5531,478
5532,479
5533,480
5534,480
5535,480
5536,479
5537,479
5538,479
5539,477
5540,478
5541,478
5542,477
5543,477
5544,478
5545,477
5546,477
5547,477
5548,479
5549,479
5550,480
5551,480
5552,480
5553,479
5554,479
5555,479
5556,477
5557,478
5558,476
5559,477
5560,476
5561,477
5562,477
5563,478
5564,478
5565,479
5566,478
5567,480
5568,480
5569,480
5570,479
5571,480
5572,478
5573,478
5574,478
5575,477
5576,477
5577,477
5578,477
5579,477
5580,477
5581,478
5582,479
5583,478
5584,479
5585,480
5586,480
5587,479
5588,479
5589,479
5590,478
5591,477
5592,477
5593,478
5594,477
5595,477
5596,477
5597,477
5598,478
5599,478
5600,479
5601,480
5602,478
5603,478
5604,478
5605,478
5606,477
5607,477
5608,477
5609,477
5610,477
5611,477
5612,477
5613,477
5614,478
5615,479
5616,478
5617,480
5618,480
5619,479
5620,480
5621,479
5622,479
5623,477
5624,478
5625,477
5626,477
5627,478
5628,477
5629,477
5630,477
5631,478
5632,478
5633,480
5634,480
5635,479
5636,480
5637,479
5638,479
5639,478
5640,478
5641,478
5642,477
5643,477
5644,477
5645,477
5646,477
5647,478
5648,478
5649,479
5650,479
5651,479
5652,478
5653,478
5654,477
5655,477
5656,476
5657,477
5658,476
5659,475
5660,476
5661,476
5662,476
5663,476
5664,477
5665,478
5666,478
5667,478
5668,478
5669,479
5670,478
5671,478
5672,477
5673,477
5674,476
5675,476
5676,476
5677,476
5678,477
5679,476
5680,477
5681,478
5682,478
5683,479
5684,479
5685,478
5686,479
5687,478
5688,478
5689,478
5690,477
5691,477
5692,476
5693,476
5694,475
5695,477
5696,477
5697,477
5698,478
5699,479
5700,479
5701,479
5702,479
5703,479
5704,479
5705,478
5706,477
5707,474
5708,477
5709,477
5710,477
5711,476
5712,476
5713,477
5714,478
5715,478
5716,479
5717,479
5718,479
5719,479
5720,484
5721,479
5722,478
5723,477
5724,477
5725,477
5726,477
5727,477
5728,477
5729,478
5730,477
5731,478
5732,479
5733,475
5734,480
5735,480
5736,480
5737,479
5738,479
5739,479
5740,478
5741,477
5742,477
5743,477
5744,477
5745,478
5746,475
5747,478
5748,478
5749,479
5750,480
5751,478
5752,479
5753,479
5754,480
5755,479
5756,478
5757,477
5758,478
5759,477
5760,476
5761,478
5762,477
5763,478
5764,479
5765,479
5766,480
5767,480
5768,480
5769,481
5770,480
5771,480
5772,475
5773,478
5774,478
5775,478
5776,479
5777,478
5778,478
5779,478
5780,478
5781,479
5782,480
5783,480
5784,480
5785,480
5786,480
5787,479
5788,480
5789,479
5790,479
5791,479
5792,478
5793,478
5794,478
5795,478
5796,478
5797,479
5798,475
5799,480
5800,480
5801,479
5802,481
5803,481
5804,480
5805,480
5806,478
5807,478
5808,478
5809,478
5810,477
5811,482
5812,478
5813,479
5814,479
5815,479
5816,480
5817,481
5818,481
5819,483
5820,486
5821,482
5822,480
5823,481
5824,480
5825,480
5826,479
5827,480
5828,481
5829,481
5830,482
5831,481
5832,481
5833,481
5834,483
5835,483
5836,482
5837,481
5838,482
5839,482
5840,481
5841,481
5842,479
5843,480
5844,480
5845,480
5846,480
5847,480
5848,481
5849,482
5850,482
5851,482
5852,482
5853,482
5854,482
5855,482
5856,481
5857,481
5858,479
5859,479
5860,480
5861,480
5862,480
5863,480
5864,481
5865,481
5866,481
5867,483
5868,482
5869,482
5870,482
5871,482
5872,482
5873,481
5874,480
5875,480
5876,480
5877,480
5878,480
5879,480
5880,481
5881,481
5882,482
5883,482
5884,483
5885,483
5886,482
5887,483
5888,482
5889,481
5890,480
5891,480
5892,480
5893,480
5894,480
5895,480
5896,481
5897,481
5898,482
5899,481
5900,482
5901,482
5902,482
5903,482
5904,482
5905,482
5906,480
5907,481
5908,480
5909,479
5910,479
5911,480
5912,480
5913,481
5914,481
5915,481
5916,481
5917,482
5918,482
5919,482
5920,482
5921,481
5922,480
5923,480
5924,480
5925,479
5926,480
5927,479
5928,481
5929,480
5930,481
5931,481
5932,481
5933,482
5934,483
5935,482
5936,482
5937,482
5938,481
5939,481
5940,481
5941,481
5942,480
5943,480
5944,481
5945,480
5946,481
5947,481
5948,481
5949,482
5950,482
5951,483
5952,482
5953,482
5954,482
5955,482
5956,481
5957,480
5958,480
5959,480
5960,480
5961,480
5962,480
5963,480
5964,481
5965,482
5966,481
5967,483
5968,492
5969,483
5970,483
5971,482
5972,481
5973,496
5974,480
5975,495
5976,481
5977,480
5978,481
5979,480
5980,481
5981,481
5982,481
5983,482
5984,482
5985,482
5986,482
5987,483
5988,482
5989,482
5990,482
5991,480
5992,481
5993,480
5994,481
5995,480
5996,480
5997,481
5998,482
5999,482
6000,482
6001,482
6002,482
6003,483
6004,482
6005,482
6006,482
6007,482
6008,480
6009,481
6010,480
6011,480
6012,480
6013,481
6014,482
6015,482
6016,482
6017,482
6018,482
6019,483
6020,482
6021,482
6022,482
6023,482
6024,481
6025,480
6026,480
6027,480
6028,481
6029,481
6030,481
6031,482
6032,482
6033,482
6034,483
6035,483
6036,483
6037,482
6038,482
6039,482
6040,482
6041,481
6042,480
6043,480
6044,480
6045,480
6046,482
6047,481
6048,482
6049,482
6050,482
6051,483
6052,482
6053,483
6054,483
6055,482
6056,482
6057,481
6058,481
6059,480
6060,480
6061,481
6062,481
6063,481
6064,481
6065,482
6066,481
6067,481
6068,481
6069,479
6070,479
6071,479
6072,478
6073,476
6074,476
6075,476
6076,476
6077,477
6078,478
6079,478
6080,479
6081,482
6082,483
6083,483
6084,484
6085,485
6086,486
6087,488
6088,490
6089,492
6090,493
6091,496
6092,500
6093,504
6094,507
6095,511
6096,518
6097,523
6098,528
6099,532
6100,535
6101,538
6102,541
6103,542
6104,544
6105,545
6106,544
6107,542
6108,540
6109,537
6110,533
6111,526
6112,520
6113,516
6114,511
6115,509
6116,506
6117,504
6118,501
6119,498
6120,495
6121,493
6122,491
6123,487
6124,485
6125,482
6126,480
6127,480
6128,481
6129,481
6130,481
6131,482
6132,482
6133,482
6134,482
6135,483
6136,482
6137,482
6138,481
6139,481
6140,480
6141,479
6142,479
6143,479
6144,478
6145,479
6146,479
6147,479
6148,480
6149,480
6150,481
6151,480
6152,480
6153,480
6154,480
6155,479
6156,479
6157,479
6158,478
6159,477
6160,476
6161,477
6162,477
6163,478
6164,478
6165,478
6166,480
6167,479
6168,479
6169,479
6170,479
6171,479
6172,478
6173,478
6174,478
6175,477
6176,477
6177,477
6178,477
6179,478
6180,478
6181,478
6182,477
6183,477
6184,478
6185,478
6186,478
6187,478
6188,477
6189,477
6190,476
6191,476
6192,476
6193,476
6194,476
6195,476
6196,476
6197,477
6198,477
6199,479
6200,478
6201,478
6202,478
6203,478
6204,478
6205,478
6206,478
6207,477
6208,477
6209,476
6210,476
6211,476
6212,476
6213,477
6214,477
6215,478
6216,477
6217,478
6218,478
6219,479
6220,478
6221,478
6222,477
6223,477
6224,477
6225,476
6226,476
6227,482
6228,481
6229,476
6230,477
6231,477
6232,478
6233,478
6234,479
6235,478
6236,479
6237,478
6238,478
6239,477
6240,479
6241,477
6242,477
6243,476
6244,476
6245,477
6246,477
6247,477
6248,479
6249,478
6250,479
6251,478
6252,479
6253,478
6254,479
6255,479
6256,478
6257,478
6258,478
6259,477
6260,478
6261,477
6262,477
6263,478
6264,477
6265,478
6266,478
6267,479
6268,479
6269,479
6270,479
6271,479
6272,478
6273,478
6274,477
6275,477
6276,477
6277,477
6278,477
6279,480
6280,477
6281,477
6282,479
6283,478
6284,479
6285,479
6286,480
6287,479
6288,478
6289,478
6290,478
6291,478
6292,481
6293,477
6294,477
6295,476
6296,478
6297,478
6298,479
6299,479
6300,479
6301,479
6302,479
6303,480
6304,480
6305,479
6306,479
6307,478
6308,478
6309,477
6310,477
6311,477
6312,478
6313,478
6314,478
6315,480
6316,479
6317,481
6318,481
6319,480
6320,480
6321,480
6322,479
6323,478
6324,479
6325,474
6326,477
6327,478
6328,477
6329,478
6330,478
6331,478
6332,480
6333,481
6334,481
6335,481
6336,481
6337,480
6338,480
6339,481
6340,479
6341,480
6342,479
6343,479
6344,482
6345,480
6346,480
6347,481
6348,482
6349,482
6350,485
6351,484
6352,485
6353,484
6354,484
6355,484
6356,483
6357,483
6358,483
6359,483
6360,491
6361,499
6362,483
6363,484
6364,484
6365,485
6366,485
6367,486
6368,486
6369,485
6370,486
6371,485
6372,485
6373,483
6374,483
6375,483
6376,482
6377,482
6378,482
6379,483
6380,483
6381,485
6382,484
6383,484
6384,485
6385,485
6386,485
6387,484
6388,484
6389,483
6390,483
6391,483
6392,481
6393,481
6394,482
6395,482
6396,482
6397,482
6398,483
6399,483
6400,484
6401,483
6402,483
6403,483
6404,482
6405,482
6406,482
6407,481
6408,481
6409,481
6410,481
6411,481
6412,481
6413,481
6414,482
6415,483
6416,481
6417,483
6418,483
6419,483
6420,482
6421,482
6422,481
6423,480
6424,481
6425,480
6426,480
6427,480
6428,480
6429,481
6430,481
6431,481
6432,482
6433,482
6434,482
6435,481
6436,482
6437,482
6438,482
6439,481
6440,480
6441,480
6442,480
6443,480
6444,480
6445,480
6446,481
6447,481
6448,481
6449,482
6450,482
6451,483
6452,482
6453,482
6454,482
6455,481
6456,481
6457,480
6458,481
6459,479
6460,479
6461,480
6462,480
6463,480
6464,481
6465,482
6466,481
6467,482
6468,483
6469,482
6470,482
6471,482
6472,482
6473,481
6474,480
6475,480
6476,479
6477,479
6478,479
6479,481
6480,480
6481,481
6482,481
6483,482
6484,482
6485,482
6486,483
6487,482
6488,482
6489,482
6490,480
6491,481
6492,480
6493,480
6494,480
6495,481
6496,481
6497,481
6498,482
6499,482
6500,482
6501,483
6502,482
6503,482
6504,482
6505,482
6506,482
6507,481
6508,481
6509,480
6510,480
6511,480
6512,480
6513,481
6514,481
6515,482
6516,482
6517,482
6518,483
6519,482
6520,483
6521,481
6522,482
6523,480
6524,480
6525,480
6526,480
6527,480
6528,481
6529,481
6530,480
6531,481
6532,481
6533,483
6534,482
6535,483
6536,482
6537,482
6538,481
6539,481
6540,482
6541,481
6542,480
6543,480
6544,480
6545,481
6546,481
6547,481
6548,482
6549,482
6550,483
6551,482
6552,482
6553,482
6554,482
6555,482
6556,482
6557,482
6558,481
6559,480
6560,480
6561,480
6562,480
6563,481
6564,481
6565,482
6566,482
6567,482
6568,482
6569,482
6570,482
6571,482
6572,481
6573,481
6574,481
6575,481
6576,481
6577,480
6578,480
6579,481
6580,482
6581,481
6582,482
6583,482
6584,482
6585,482
6586,482
6587,482
6588,482
6589,481
6590,481
6591,481
6592,480
6593,480
6594,481
6595,481
6596,481
6597,481
6598,482
6599,482
6600,483
6601,483
6602,482
6603,482
6604,482
6605,481
6606,482
6607,481
6608,482
6609,481
6610,481
6611,481
6612,481
6613,481
6614,481
6615,482
6616,482
6617,483
6618,483
6619,482
6620,483
6621,483
6622,482
6623,482
6624,481
6625,480
6626,480
6627,480
6628,480
6629,480
6630,480
6631,481
6632,482
6633,482
6634,482
6635,482
6636,482
6637,482
6638,482
6639,481
6640,481
6641,480
6642,480
6643,492
6644,481
6645,481
6646,481
6647,481
6648,482
6649,482
6650,483
6651,483
6652,482
6653,483
6654,483
6655,483
6656,482
6657,482
6658,481
6659,480
6660,481
6661,480
6662,481
6663,481
6664,481
6665,483
6666,483
6667,483
6668,483
6669,483
6670,482
6671,482
6672,483
6673,481
6674,480
6675,480
6676,480
6677,481
6678,480
6679,481
6680,481
6681,481
6682,482
6683,482
6684,482
6685,482
6686,482
6687,483
6688,482
6689,482
6690,480
6691,481
6692,480
6693,480
6694,480
6695,481
6696,481
6697,481
6698,482
6699,482
6700,482
6701,482
6702,483
6703,482
6704,482
6705,482
6706,482
6707,482
6708,481
6709,481
6710,480
6711,481
6712,480
6713,479
6714,480
6715,482
6716,480
6717,481
6718,481
6719,481
6720,481
6721,482
6722,481
6723,480
6724,480
6725,479
6726,480
6727,479
6728,479
6729,479
6730,479
6731,480
6732,480
6733,481
6734,481
6735,482
6736,481
6737,481
6738,480
6739,481
6740,480
6741,480
6742,479
6743,479
6744,480
6745,479
6746,479
6747,480
6748,481
6749,480
6750,482
6751,482
6752,481
6753,481
6754,481
6755,481
6756,481
6757,480
6758,480
6759,481
6760,479
6761,479
6762,479
6763,481
6764,480
6765,481
6766,481
6767,481
6768,482
6769,481
6770,481
6771,481
6772,481
6773,480
6774,480
6775,480
6776,480
6777,480
6778,480
6779,480
6780,479
6781,480
6782,481
6783,481
6784,482
6785,482
6786,482
6787,481
6788,481
6789,482
6790,481
6791,480
6792,479
6793,479
6794,480
6795,480
6796,480
6797,480
6798,482
6799,481
6800,481
6801,481
6802,482
6803,482
6804,485
6805,481
6806,481
6807,480
6808,481
6809,480
6810,480
6811,480
6812,480
6813,480
6814,481
6815,482
6816,481
6817,483
6818,482
6819,482
6820,482
6821,481
6822,481
6823,481
6824,481
6825,481
6826,480
6827,480
6828,480
6829,480
6830,481
6831,480
6832,480
6833,481
6834,482
6835,482
6836,482
6837,482
6838,482
6839,481
6840,481
6841,482
6842,479
6843,480
6844,481
6845,481
6846,481
6847,481
6848,487
6849,482
6850,483
6851,483
6852,481
6853,482
6854,483
6855,482
6856,481
6857,481
6858,480
6859,480
6860,480
6861,480
6862,480
6863,481
6864,481
6865,482
6866,481
6867,481
6868,483
6869,482
6870,483
6871,482
6872,482
6873,481
6874,481
6875,481
6876,480
6877,480
6878,481
6879,480
6880,483
6881,484
6882,484
6883,484
6884,485
6885,485
6886,485
6887,484
6888,484
6889,484
6890,497
6891,483
6892,482
6893,482
6894,482
6895,482
6896,482
6897,484
6898,483
6899,485
6900,485
6901,485
6902,485
6903,484
6904,484
6905,483
6906,483
6907,483
6908,484
6909,482
6910,482
6911,482
6912,483
6913,483
6914,483
6915,484
6916,484
6917,484
6918,485
6919,485
6920,484
6921,485
6922,484
6923,483
6924,483
6925,483
6926,482
6927,481
6928,482
6929,483
6930,482
6931,483
6932,484
6933,484
6934,485
6935,485
6936,485
6937,484
6938,484
6939,483
6940,482
6941,483
6942,481
6943,482
6944,483
6945,493
6946,485
6947,499
6948,500
6949,499
6950,484
6951,485
6952,484
6953,484
6954,484
6955,484
6956,483
6957,483
6958,483
6959,482
6960,482
6961,482
6962,482
6963,482
6964,483
6965,484
6966,483
6967,484
6968,484
6969,484
6970,484
6971,484
6972,483
6973,482
6974,482
6975,481
6976,481
6977,481
6978,482
6979,482
6980,482
6981,483
6982,483
6983,483
6984,484
6985,483
6986,484
6987,483
6988,482
6989,482
6990,482
6991,483
6992,482
6993,481
6994,481
6995,481
6996,482
6997,482
6998,483
6999,483
7000,484
7001,484
7002,484
7003,483
7004,483
7005,483
7006,483
7007,483
7008,482
7009,481
7010,481
7011,481
7012,482
7013,482
7014,482
7015,483
7016,482
7017,483
7018,484
7019,483
7020,483
7021,482
7022,482
7023,482
7024,479
7025,478
7026,478
7027,477
7028,477
7029,477
7030,477
7031,478
7032,479
7033,480
7034,480
7035,482
7036,481
7037,482
7038,483
7039,483
7040,483
7041,484
7042,484
7043,486
7044,489
7045,490
7046,493
7047,497
7048,501
7049,505
7050,509
7051,516
7052,520
7053,524
7054,527
7055,531
7056,534
7057,536
7058,539
7059,541
7060,542
7061,542
7062,542
7063,540
7064,539
7065,537
7066,532
7067,528
7068,522
7069,517
7070,512
7071,509
7072,506
7073,502
7074,499
7075,496
7076,493
7077,490
7078,488
7079,486
7080,484
7081,483
7082,482
7083,482
7084,483
7085,484
7086,483
7087,483
7088,482
7089,483
7090,483
7091,482
7092,480
7093,480
7094,480
7095,481
7096,479
7097,481
7098,480
7099,481
7100,482
7101,482
7102,481
7103,481
7104,481
7105,481
7106,480
7107,480
7108,479
7109,478
7110,478
7111,478
7112,479
7113,478
7114,479
7115,480
7116,480
7117,480
7118,480
7119,480
7120,480
7121,480
7122,480
7123,479
7124,478
7125,478
7126,477
7127,477
7128,478
7129,479
7130,478
7131,479
7132,480
7133,481
7134,480
7135,480
7136,480
7137,480
7138,480
7139,479
7140,479
7141,478
7142,477
7143,478
7144,478
7145,478
7146,479
7147,478
7148,479
7149,479
7150,481
7151,480
7152,480
7153,481
7154,481
7155,480
7156,481
7157,479
7158,479
7159,479
7160,478
7161,477
7162,478
7163,478
7164,479
7165,481
7166,480
7167,481
7168,481
7169,481
7170,481
7171,480
7172,481
7173,479
7174,478
7175,478
7176,479
7177,479
7178,479
7179,478
7180,479
7181,479
7182,480
7183,480
7184,481
7185,480
7186,481
7187,480
7188,481
7189,480
7190,479
7191,478
7192,478
7193,479
7194,479
7195,479
7196,478
7197,478
7198,480
7199,480
7200,481
7201,481
7202,481
7203,481
7204,481
7205,480
7206,480
7207,479
7208,479
7209,478
7210,478
7211,478
7212,480
7213,479
7214,479
7215,481
7216,480
7217,481
7218,481
7219,481
7220,481
7221,481
7222,480
7223,480
7224,479
7225,480
7226,478
7227,479
7228,479
7229,480
7230,479
7231,480
7232,481
7233,481
7234,481
7235,481
7236,481
7237,480
7238,480
7239,480
7240,478
7241,479
7242,478
7243,477
7244,478
7245,477
7246,477
7247,478
7248,478
7249,480
7250,479
7251,480
7252,479
7253,479
7254,479
7255,479
7256,479
7257,478
7258,478
7259,477
7260,478
7261,477
7262,479
7263,477
7264,479
7265,480
7266,479
7267,480
7268,480
7269,481
7270,480
7271,480
7272,480
7273,479
7274,478
7275,477
7276,478
7277,478
7278,477
7279,478
7280,479
7281,478
7282,480
7283,481
7284,480
7285,481
7286,481
7287,481
7288,480
7289,480
7290,479
7291,479
7292,478
7293,478
7294,478
7295,479
7296,479
7297,480
7298,480
7299,481
7300,480
7301,482
7302,482
7303,482
7304,482
7305,481
7306,483
7307,481
7308,476
7309,480
7310,480
7311,480
7312,481
7313,481
7314,481
7315,482
7316,483
7317,484
7318,484
7319,484
7320,484
7321,484
7322,483
7323,483
7324,482
7325,482
7326,482
7327,482
7328,482
7329,483
7330,482
7331,483
7332,483
7333,484
7334,484
7335,484
7336,485
7337,484
7338,483
7339,483
7340,482
7341,482
7342,481
7343,480
7344,480
7345,481
7346,481
7347,481
7348,482
7349,482
7350,482
7351,483
7352,483
7353,482
7354,482
7355,482
7356,481
7357,481
7358,480
7359,480
7360,480
7361,479
7362,481
7363,480
7364,480
7365,481
7366,481
7367,481
7368,481
7369,482
7370,481
7371,481
7372,481
7373,480
7374,480
7375,479
7376,479
7377,479
7378,480
7379,481
7380,480
7381,480
7382,481
7383,482
7384,481
7385,481
7386,481
7387,482
7388,482
7389,480
7390,479
7391,480
7392,479
7393,478
7394,479
7395,479
7396,479
7397,480
7398,481
7399,481
7400,482
7401,481
7402,482
7403,482
7404,480
7405,481
7406,481
7407,480
7408,480
7409,478
7410,479
7411,481
7412,481
7413,482
7414,481
7415,482
7416,482
7417,484
7418,483
7419,483
7420,484
7421,484
7422,484
7423,484
7424,492
7425,481
7426,481
7427,481
7428,481
7429,481
7430,481
7431,481
7432,482
7433,482
7434,483
7435,484
7436,482
7437,482
7438,483
7439,482
7440,481
7441,481
7442,481
7443,481
7444,480
7445,481
7446,480
7447,481
7448,481
7449,482
7450,482
7451,483
7452,483
7453,483
7454,482
7455,482
7456,482
7457,482
7458,482
7459,481
7460,481
7461,481
7462,481
7463,482
7464,482
7465,482
7466,482
7467,483
7468,483
7469,483
7470,482
7471,482
7472,482
7473,482
7474,481
7475,481
7476,480
7477,481
7478,481
7479,481
7480,481
7481,483
7482,482
7483,482
7484,483
7485,483
7486,483
7487,483
7488,483
7489,482
7490,481
7491,481
7492,480
7493,481
7494,481
7495,481
7496,481
7497,481
7498,481
7499,483
7500,482
7501,483
7502,483
7503,483
7504,482
7505,482
7506,482
7507,481
7508,481
7509,481
7510,481
7511,481
7512,481
7513,484
7514,482
7515,485
7516,484
7517,486
7518,486
7519,487
7520,488
7521,487
7522,486
7523,485
7524,484
7525,484
7526,484
7527,485
7528,484
7529,485
7530,487
7531,487
7532,488
7533,492
7534,493
7535,493
7536,492
7537,491
7538,488
7539,488
7540,486
7541,486
7542,490
7543,490
7544,490
7545,489
7546,487
7547,484
7548,485
7549,484
7550,481
7551,477
7552,476
7553,476
7554,475
7555,472
7556,473
7557,478
7558,482
7559,486
7560,489
7561,490
7562,490
7563,490
7564,487
7565,483
7566,479
7567,476
7568,475
7569,477
7570,478
7571,479
7572,480
7573,481
7574,480
7575,476
7576,474
7577,475
7578,474
7579,475
7580,476
7581,479
7582,481
7583,483
7584,484
7585,483
7586,485
7587,488
7588,487
7589,485
7590,484
7591,484
7592,484
7593,484
7594,483
7595,483
7596,484
7597,480
7598,478
7599,481
7600,481
7601,479
7602,477
7603,473
7604,474
7605,477
7606,478
7607,477
7608,480
7609,483
7610,487
7611,490
7612,495
7613,499
7614,500
7615,504
7616,505
7617,500
7618,493
7619,494
7620,494
7621,489
7622,481
7623,475
7624,475
7625,474
7626,470
7627,469
7628,474
7629,479
7630,485
7631,493
7632,496
7633,491
7634,487
7635,482
7636,473
7637,465
7638,464
7639,472
7640,478
7641,484
7642,490
7643,502
7644,511
7645,519
7646,520
7647,518
7648,507
7649,494
7650,476
7651,465
7652,465
7653,473
7654,476
7655,479
7656,484
7657,488
7658,484
7659,477
7660,480
7661,481
7662,480
7663,480
7664,485
7665,498
7666,505
7667,506
7668,505
7669,500
7670,488
7671,479
7672,482
7673,486
7674,483
7675,486
7676,480
7677,475
7678,480
7679,487
7680,493
7681,493
7682,488
7683,486
7684,482
7685,473
7686,462
7687,459
7688,467
7689,479
7690,490
7691,505
7692,527
7693,534
7694,518
7695,493
7696,478
7697,478
7698,481
7699,479
7700,476
7701,473
7702,462
7703,456
7704,459
7705,464
7706,467
7707,468
7708,469
7709,474
7710,481
7711,484
7712,493
7713,497
7714,500
7715,505
7716,510
7717,519
7718,521
7719,520
7720,513
7721,505
7722,491
7723,478
7724,480
7725,486
7726,488
7727,476
7728,465
7729,469
7730,470
7731,475
7732,474
7733,468
7734,482
7735,488
7736,502
7737,509
7738,512
7739,522
7740,512
7741,504
7742,496
7743,490
7744,485
7745,475
7746,490
7747,486
7748,477
7749,465
